# Edges conflicts graph.
TITLE="Edges conflicts graph"
VARIABLES="X", "Y", "Z", "C"
ZONE T="Edges conflicts graph"
NODES=7431
ELEMENTS=14820
DATAPACKING=BLOCK
ZONETYPE=FETRIANGLE
-0.08813016500000001 -0.08802648 -0.089594705 -0.086139445 -0.086711705 -0.08648364 -0.026843449999999998 -0.026077515 -0.026617244999999998 -0.07243050000000001 -0.0702577 -0.06991098 -0.028605079999999998 -0.027223665 -0.029977435 -0.05890168 -0.060641815 -0.058641135 -0.004940875 -0.00260393 -0.0057471250000000005 -0.056319205 -0.055232485 -0.0555409 -0.084300235 -0.08497060000000001 -0.085534255 -0.06900780000000001 -0.067651655 -0.068056855 -0.08921245 -0.089105635 -0.089505525 0.057892555 0.058416184999999995 0.057868779999999995 -0.036596975 -0.034600185 -0.03752311 -0.008536475 -0.00619953 -0.08249700500000001 -0.08249895500000001 -0.08373853 -0.07155944 -0.069899085 -0.071098805 -0.06441730500000001 -0.06359202 -0.064133675 -0.06545883999999999 -0.064148665 -0.065236475 -0.0492796 -0.051093505 -0.049685905 -0.069451775 -0.069171755 -0.07063974 -0.06747205 -0.066895945 -0.06855989500000001 -0.070118075 -0.068252375 -0.06899786 -0.07104551 -0.07270586500000001 -0.03123837 -0.028775625 -0.030585675 -0.07183946 -0.01766886 -0.01572921 -0.018170989999999998 -0.091769455 -0.092611075 -0.091391 -0.010655089999999999 -0.005461855 -0.008300635 -0.07067354 -0.06987900999999999 -0.06959072 -0.092225825 -0.09210718500000001 -0.09261786999999999 -0.08518496 -0.08459965 -0.0854492 -0.008168715 -0.006921945 -0.00435417 -0.01211518 -0.037515135 -0.03648956 -0.036588245 -0.029371015 -0.077847585 -0.07517594999999999 -0.076368325 -0.06940882500000001 -0.06766807 -0.069131535 -0.088362015 -0.08818743500000001 -0.08723048 -0.005431715 -0.00307726 -0.08582996 -0.08744933499999999 -0.084918355 0.001414515 0.000930665 0.00356405 -0.06784132500000001 -0.066177375 -0.080268315 -0.078022135 -0.07925049 -0.09364333999999999 -0.09378918 -0.09313537 -0.0016039850000000003 -0.00035721500000000014 0.0002976449999999999 -0.0036993100000000004 -0.07344269 -0.07309597000000001 -0.024881605 -0.021785065 -0.02320718 -0.083900945 -0.08149166 -0.084128445 -0.00106952 0.00227246 0.00023457999999999986 -0.08296404 -0.081909485 -0.08268202499999999 -0.06717437500000001 -0.066087775 -0.06604556 -0.0636198 -0.0645607 -0.0648672 -0.065220275 -0.08937776 -0.0887242 -0.08809262 0.003739765 0.005043865 0.013291845 0.010906144999999999 0.01284998 -0.069901885 -0.07058176499999999 -0.07154344 -0.08144245 -0.01210798 -0.009927545 -0.013046644999999999 -0.07335596999999999 -0.07298569999999999 -0.07411835 -0.00087601 0.000468985 -0.002898945 -0.08906338 -0.08876176499999999 -0.089193875 -0.07408250499999999 -0.07402921 -0.089513575 -0.089531545 -0.0905759 -0.0040702049999999995 -0.003077945 -0.0055942 -0.05048027 -0.05156922 -0.05133122 -0.06829459 -0.09371001500000001 -0.093410345 -0.09394388000000001 -0.07995215 -0.08117799 -0.08022963 -0.07803022500000001 -0.079256065 -0.078417825 -0.08061723 -0.072803515 -0.07091493 -0.072270115 -0.081117305 -0.08111534 -0.078933665 -0.04877674 -0.05104097 -0.04957544 -0.05585949 -0.056637795 -0.09143143000000001 -0.09141346 -0.068036185 -0.07949099 -0.07854263 -0.07784627 -0.079690715 -0.079100525 -0.05810162 -0.058340235 -0.059814235 -0.073473325 -0.07484996499999999 -0.031195385 -0.028844929999999998 -0.028822435 -0.09015134 -0.09078291999999999 -0.053948795 -0.051928615 -0.05304568 -0.06725800500000001 -0.06619365499999999 -0.06953078 -0.05707874 -0.055557655 -0.056163445 -0.07736100500000001 -0.076899845 -0.07638744 -0.07720983000000001 -0.077881095 -0.07910772499999999 0.042476824999999996 0.042316445 0.041278499999999996 -0.08619252999999999 -0.08647842 -0.08649050999999999 -0.024583965 -0.019577475 -0.01850036 -0.089553915 -0.089349295 -0.08929087 -0.09433878500000001 -0.09383081500000001 -0.06579458499999999 -0.0638827 0.005065975 0.006824775 0.00415177 -0.07651993 -0.075644975 -0.076235165 -0.075008535 -0.05140207 -0.051700474999999996 -0.050588905 -0.013548774999999999 -0.071579375 -0.069059855 -0.057793205 0.005998825 0.008080035000000001 0.00565777 -0.0054152 -0.07522296 -0.07732365 -0.07598078 -0.074192055 -0.074861275 -0.07576424500000001 -0.075227515 -0.013961620000000001 -0.0120906 -0.01122797 -0.038465355 -0.03751923 -0.036046625 -0.08497255000000001 -0.08496046 -0.092756915 -0.09194421 -0.09117063 -0.08748059 -0.087596985 -0.086678335 -0.038480015 -0.036799504999999996 -0.036943069999999995 -0.034507090000000004 -0.032653145 -0.034902365000000005 -0.07478349000000001 -0.07344062 -0.07356886 -0.07625828500000001 -0.073913775 -0.07491157000000001 -0.08830055 -0.08852537499999999 -0.089784515 -0.08874508 -0.08858885 -0.08924248000000001 -0.06312021 -0.061307325 -0.063343265 -0.07235574 -0.074799155 -0.073274805 -0.07174864 -0.073559395 -0.07431508 -0.07330046500000001 -0.07357607 -0.073949685 -0.072627535 -0.0615435 -0.06126742 -0.061241500000000004 -0.00382706 -0.00661641 -0.088175715 -0.08794822499999999 -0.08885876000000001 -0.02721801 -0.029757884999999998 -0.025995715 -0.07334041499999999 0.04213696 0.043116644999999995 0.042238515000000004 0.051586145 0.050875965 0.05214398 -0.032525305 -0.03130301 -0.007555075 -0.06465684 -0.064296875 -0.063256775 -0.07191627 0.005209985 0.002287885 0.00373115 0.048129975000000005 0.04868781 0.04198478 0.043048625 0.041815205 0.052434 0.053702015 -0.051781775 -0.051869085 -0.05045207 -0.01350479 -0.00941028 -0.012178580000000001 0.0009127450000000001 0.00010649500000000007 -0.06991272 -0.071404335 -0.071948545 -0.071556975 -0.07118336 -0.070472095 0.001721495 0.002502905 0.00284709 -0.070673865 -0.07136732 0.0461474 0.04813447999999999 0.0447062 0.05592817 0.05598581 0.057364109999999996 0.045235705 0.045606469999999996 0.045881955 -0.05771027 -0.06059672 -0.05823922 -0.0853553 -0.084943075 -0.083901935 -0.087418365 -0.0871903 -0.0761417 -0.074822685 -0.075849375 -0.068844455 -0.068300245 -0.069073985 -0.07129943999999999 -0.069916495 -0.06853672499999999 -0.07076218000000001 -0.0039324849999999995 -0.006121615 -0.00343304 0.01141099 0.00945903 0.011462420000000001 0.00456218 0.004855645 0.0029579849999999998 -0.069488255 -0.06825723 -0.069600365 0.046543595 0.04655767500000001 0.0462668 -0.09107947 -0.09109953500000001 -0.090356975 -0.08757391 -0.086085845 -0.087097815 -0.00191438 9.336000000000001e-05 -0.00103938 0.003403755 0.00138082 -0.066337805 -0.06772075 -0.06500761499999999 -0.063900735 -0.06417677 -0.000128325 -0.003312135 -0.00381745 0.006692085 0.005413015 0.00476213 -0.048885535 -0.04910804 -0.048246125 -0.09426743 -0.094309065 -0.04711912 -0.046826065 -0.044048775 0.04492583 0.04379845 0.04400643 -0.09424062999999999 -0.094311985 0.045526175 0.045318195000000006 -0.083527695 -0.022980975 -0.019915389999999998 -0.013831785 -0.0875303 -0.08723232 0.0074661300000000005 0.009415264999999999 0.010370225 -0.066108275 -0.01654504 -0.01787223 -0.01948709 0.00585044 0.00506903 0.00760471 0.00480009 0.00318161 0.0026762950000000004 0.007076839999999999 0.00265374 0.060308020000000004 0.060428745 0.059957965 0.054903885 0.056339824999999996 -0.06432492000000001 -0.063173125 -0.06309772500000001 0.05405603 0.05334585 0.002056445 -0.068092585 -0.06693739 -0.066747575 -0.068825455 -0.06775719 0.01874503 0.015918885 0.017831115 0.00645771 0.004153405000000001 0.007103295000000001 0.00650672 0.0057218849999999995 0.004413335 -0.06818862 -0.06719628 -0.06668413000000001 0.044417475 0.044582015 0.044795680000000004 0.043155360000000004 0.043533564999999996 -0.023483169999999998 -0.01988997 -0.01986629 -0.01712167 -0.028537504999999998 -0.029077235 0.016499025 0.01647018 0.019291595 -0.06446598 -0.0672155 -0.06774167 -0.0674647 -0.06892001 -0.06644746 -0.065292265 -0.066155225 -0.064810215 -0.065630015 -0.06450631000000001 0.007154725000000001 0.004423445 0.00677918 0.044112285 0.044442175 0.04529011 -0.00064752 -0.00237425 -0.0025815300000000003 0.00739798 0.00842226 0.00616932 0.007943825 0.005944845 0.0048807799999999995 0.0066321850000000005 -0.02826063 -0.027645285 -0.030966765 -0.03106507 -0.0025324849999999997 -0.0023746649999999998 -0.004466909999999999 0.005829005 0.00422481 -0.027219 -0.027250395 -0.030103005 -0.05117293 -0.052675484999999994 -0.052961104999999994 -0.045886995 -0.046495575 -0.047157069999999995 -0.08146985000000001 -0.0830869 -0.08085455 -0.063186525 -0.063712695 -0.06380363 -0.064103745 -0.062021665000000004 -0.061543405 0.043550455 0.04552565 0.045760555 -0.01703241 -0.016652180000000003 -0.014275719999999999 -0.000969395 -0.0029038199999999997 -0.06317275 -0.062020955 0.033698914999999996 0.035788440000000005 0.035463435 -0.062072595 -0.06285476000000001 -0.061366125 -0.062818525 -0.05985562 -0.06221744 -0.064383485 0.03824502 0.037006325 0.036754085 0.0070293050000000004 0.004025955 -0.054629245 -0.054706964999999996 -0.053121070000000006 -0.09001511000000001 -0.090672415 -0.090138145 -0.09123716 -0.09039554 -0.023196929999999998 -0.024569285 0.027232359999999997 0.023824935 0.025600345 -0.06082342 -0.06338515 -0.062082460000000006 -0.059394665 -0.061430985 -0.06190349 -0.061150205 -0.06096592 -0.062245375 -0.061056855 -0.05924799 -0.060806245 -0.05958795 0.00629533 0.00743068 0.00968362 0.045936359999999996 -0.060882069999999996 -0.05931711 0.0055742050000000005 0.008524095 -0.021041325 -0.067307035 -0.068114185 -0.06687733000000001 -0.060147595 -0.058864559999999996 -0.058680275000000004 -0.05955726 -0.058370435 -0.057841245 -0.061489175 -0.058588845 0.0005673350000000001 0.00091152 0.001131955 -0.0001686000000000001 -0.002544465 -0.07471515000000001 -0.07398147999999999 -0.07384388 0.04147443 0.040499629999999995 0.039661100000000005 0.006983955 0.004698315 -0.06711863500000001 -0.06620076 -0.06755275499999999 -0.0573965 -0.058214825 0.008307970000000001 0.00992645 -0.04713204 -0.04551951 -0.04610197 -0.06902193000000001 -0.070663485 -0.031361475 -0.031655255 -0.05823123 -0.05241965 -0.056562760000000004 -0.05705568 -0.058961070000000004 -0.05701677 -0.057310555 -0.057870435 -0.05798073 -0.05718387 -0.05664536 0.0064946050000000005 0.0047431999999999995 0.00476819 0.0027138 0.0032304 -0.062170920000000005 -0.06270112 -0.06252644 0.014405575 0.013491659999999999 -0.0014635100000000001 -0.003496735 -0.0022758649999999997 0.00411262 0.00274483 0.0037772500000000002 -0.0703269 -0.070230605 -0.069509295 -0.06541857000000001 -0.06440694500000001 -0.062909255 -0.05708025 -0.057552755 -0.056550144999999996 -0.05612373 -0.056489315 -0.055152935 0.0009048600000000001 -0.0008218700000000002 -0.001081 -0.003022375 -0.003999225 0.06066195 0.06034425 0.06041127 -0.0008705949999999999 -0.054851529999999996 -0.054991305 -0.057040775 -0.033611125000000006 -0.03390546 -0.031064515 -0.06510795 -0.06307201 -0.06701262999999999 -0.06575381999999999 -0.06695575 -0.056938465 -0.054994165 -0.054555889999999996 -0.05646128 -0.05461937 -0.05442752 -0.055739325000000006 -0.055273875 -0.05627739 -0.057561165 -0.05580897 -0.057026485 -0.055151595 -0.056091555 -0.05669866 0.0014056049999999999 0.001198325 0.04397492 0.04320618 0.04154422 0.021040475000000003 0.019207555 0.018806370000000003 -0.052762254999999994 -0.054811725 0.039984365 0.039162564999999996 0.036427810000000005 -0.0577777 -0.056037565 -0.062738585 -0.061042435 -0.06407049000000001 -0.05356086 -0.05411635 -0.054279685 -0.054933344999999995 -0.054779684999999995 -0.00524403 -0.006056385 0.01510822 0.013365044999999999 0.015230275000000001 0.015159949999999998 0.012732725 0.046135065 0.04424826 0.044199765 0.02118342 0.019397305 0.019655545 0.04450118 0.044554835 0.042969445 0.045902899999999996 0.044317510000000004 0.05494797 0.054859265000000004 0.056819275 0.020488205000000002 0.018575975 -0.03916873 -0.04153386 -0.03978535 -0.04937303 -0.047711105000000004 -0.049318484999999995 -0.01057523 -0.01025921 -0.01230361 -0.030061915 -0.029349845 -0.03046082 -0.05201371 -0.05263268 -0.05182186 -0.05327617 -0.052418334999999996 -0.05426238 -0.05344762 -0.05194869 -0.05349528 -0.053652665 -0.05287314 -0.054365565 -0.05027341 -0.05247538 -0.0519994 0.040906405 0.040654165 -0.002931435 -0.005376215 -0.00255767 0.01989523 0.01763424 0.01739818 -0.00421866 -0.00165901 0.01742144 0.038197640000000005 0.03662133 0.03560023 -0.05292856 -0.05193353 -0.05340234 -0.053246295 -0.051122545 0.011569010000000001 0.010814635 0.00346579 0.00415313 0.01197267 0.012360645 0.009328345 0.0017775400000000002 -0.050921095 -0.051204985 -0.04947053 -0.050386379999999995 -0.05157417 -0.051308770000000004 -0.04951393 -0.051653935 -0.051994465000000004 -0.05035503 -0.050872335000000005 -0.051746025 0.01507108 0.01399315 0.01405926 0.05608294 0.057164864999999995 -0.000683185 0.0023382650000000004 0.0024713649999999997 -0.000484595 0.00081076 -0.062030459999999996 -0.06208719 -0.06222179 -0.04957349 -0.051341395 -0.050954545 0.059606735 0.058756155000000004 0.059242989999999995 -0.06830915500000001 -0.067109645 -0.06766737 -0.049686535 -0.04959063 -0.050341515 -0.04996836 -0.000668075 0.039730890000000005 0.038145435000000005 0.037100845 0.03938413 0.04614902 0.044988355 0.044476215 0.047198455 0.04591022 -0.078157205 -0.07632599 -0.077100485 0.002984765 -0.051944725 -0.052132239999999996 -0.050083925 -0.07227787999999999 -0.07201893 -0.07175708 -0.05025951 -0.05030717 -0.04810421 -0.04979339 -0.04838888 -0.049543065 0.0007160199999999999 0.03666785 0.033636219999999994 0.03546563 -0.002872315 -0.00342052 -0.000670665 -0.00399799 -0.005687955 -0.004683495 0.010847335 -0.005030655 -0.00926253 -0.010749295 -0.04856668 -0.04828279 -0.048542749999999996 -0.0482203 -0.050076869999999996 -0.04907378 -0.04844888 -0.05012084 -0.048714419999999994 -0.048904935 -0.04871351 -0.049123150000000004 -0.04834212 -0.047882085 -0.048358065 -0.06461738 -0.06340602000000001 -0.06496676 0.002146055 0.005068155 -0.045725345 -0.046913085 -0.045378965 -0.0068425050000000005 -0.04770174 -0.046389139999999995 -0.04734096 -0.047854049999999995 -0.04666179 -0.044963055 -0.047110294999999996 -0.04656627 -0.09117030500000001 -0.09162403499999999 -0.09130387 0.009865215 0.007543475 -0.047779815 -0.045515585 -0.04727536 -0.046888509999999994 -0.008726335 -0.045528769999999996 -0.045057605 -0.046717485 -0.04662158 -0.044922845 -0.04605249 -0.04754367 -0.047824494999999995 -0.04940875 -0.047435815 -0.01067062 -0.011634375 -0.011208225 0.0021392050000000004 0.000601415 0.0019627200000000003 -0.06843033000000001 -0.06806332500000001 -0.067080655 -0.0484479 -0.046982369999999996 -0.088858465 -0.0893958 -0.088048545 -0.044138424999999995 -0.04598466 -0.045532705 -0.04387911 -0.06943197000000001 -0.068971335 0.032297525 0.033806420000000004 0.032239455 -0.045022535 -0.046195635 -0.04622872 -0.04521604 -0.044252715 -0.045790655 -0.045870075 -0.045916835 -0.04510499 -0.046731825000000005 -0.04438298 -0.046355915 -0.016857205 -0.01777105 -0.014809335 -0.02983423 -0.027857615000000002 -0.026242204999999998 -0.044512595 -0.045977435 -0.045188690000000004 0.01756813 -0.087770455 -0.087116895 -0.04386484 -0.043897925 -0.04411706 -0.04372896 -0.045644304999999996 -0.040916640000000004 -0.045069765 -0.04162825 -0.048945619999999995 -0.050265439999999995 -0.04978845 0.052894905 0.04984062 0.049747564999999994 0.047073445 0.047346785 -0.09052793 -0.08971801 0.00476687 -0.04426445 -0.045769515 -0.043484385 -0.042359775 -0.042368174999999994 -0.043525869999999994 -0.04368629 -0.043283890000000005 -0.04414564 -0.041907860000000005 -0.06672418499999999 -0.064963885 -0.06599113000000001 0.006123725 0.00360409 0.002773325 -0.042613780000000004 -0.04551753 -0.044407459999999996 -0.042611835 -0.050528014999999996 -0.05022961 -0.041929215 -0.043184274999999994 -0.04323438 -0.043716425 -0.042026255 -0.043868735 -0.04324526 -0.043733974999999994 -0.042725855 -0.042852035 -0.041892685 -0.092390045 -0.09250868500000001 -0.06341287 -0.062185675 0.0016509750000000003 -0.00046141 0.0020977 0.0007299100000000001 -0.002748145 7.04e-05 -0.04291763 -0.042465674999999994 -0.039082745 -0.040429505 -0.040532349999999995 -0.040582455 -0.040748485 -0.04112894 -0.04175861 -0.04328547 -0.042987689999999995 -0.062189905000000004 -0.061950160000000004 -0.061606935 -0.061123475 -0.059897809999999996 -0.006645885 -0.00585142 -0.008599155 0.01096085 -0.040089315 -0.04131011 -0.041502750000000005 -0.04001161 -0.04110793 -0.042975429999999995 -0.038763245 -0.04016011 -0.04067703 -0.040707165000000003 -0.03939413 -0.040743354999999995 -0.040445575 -0.04059954 -0.041031395 -0.049043125 -0.048548995 -0.048928479999999996 0.033974695 -0.009732919999999999 -0.0093838 -0.01013369 -0.03417544 -0.033226455 -0.030409145 -0.03853893 -0.039318865 -0.03808803 -0.040756885 -0.039437795 -0.038879849999999994 -0.037864595 -0.03801856 -0.0393586 -0.040651745 -0.037216324999999995 -0.03888912 -0.03847244 -0.03977069 -0.03919615 -0.038480765 -0.039611864999999996 -0.041783299999999995 -0.08607739 -0.08710261 -0.08785016000000001 -0.00155321 -0.039329785 -0.041152999999999995 -0.039680494999999996 -0.04049894 -0.0375676 -0.04078862 -0.001582485 -0.0048125649999999996 -0.00319916 -0.039056715000000006 -0.04021228 -0.038562004999999996 -0.037499655 0.060168405 0.059544824999999996 0.060155219999999995 -0.03889927 -0.037426765 -0.03720196 -0.036779615 -0.038011555 -0.0379317 -0.03662517 -0.03805141 -0.0380876 -0.036744895 -0.038087615 -0.036193575 -0.03753628 -0.035970555 -0.03783487000000001 -0.03611518 -0.03607856 -0.037981940000000006 -0.03760229 -0.035839665 -0.03675195 -4.552e-05 -0.00148584 0.04214653 0.043213395 0.042480875 0.02108052 0.021303870000000003 0.02019147 -0.08857271 -0.035227234999999996 -0.037147695 -0.036223649999999996 -0.036682839999999994 -0.036264945 -0.036817125 -0.03671428 -0.034833495 -0.036581935 -0.03478481 -0.034861285000000006 -0.03380747 -0.034193435 -0.038325714999999996 -0.037179765000000004 -0.00034144 0.01139168 0.009094665 0.010684315 -0.001613035 -0.003120725 -0.036821745 -0.038724764999999994 -0.037542515 -0.034344484999999994 -0.03593837 -0.03588376 -0.035764050000000006 -0.034901669999999996 -0.034901685 -0.03499191 -0.034440575 -0.03490385 -0.03475678 -0.035881515 -0.00481069 0.00858655 -0.035694745 -0.037137085 -0.03583558 -0.032232424999999995 -0.031785265 -0.02962445 -0.054346025 -0.053888615 -0.054911589999999996 -0.03441722 -0.03356927 -0.033954105 -0.0348749 -0.033154249999999996 -0.03413349 -0.03404055 -0.033148685 -0.005044015 -0.007365715 -0.00354057 0.011446955 -0.0331514 -0.03253695 -0.033738615 -0.032871655 -0.033539755000000004 -0.03311194 0.00303606 0.00175699 0.0051369 -0.0030702150000000003 -0.00675934 -0.004794705 -0.004848585 -0.00749809 -0.06670718 0.011376725 0.00835203 0.010218294999999999 0.003057545 -0.0004591300000000001 -0.03250031 -0.032459015 -0.032360575 -0.032329134999999995 -0.03287702 -0.034141245 -0.03053834 -0.032441965 -0.03277028 -0.033399545 -0.033583234999999996 -0.07219331 -0.071565905 -0.071675615 -0.092364685 -0.092821925 -0.09227927 -0.031481184999999995 -0.032022495 -0.031932405 -0.031929555 -0.030054644999999998 -0.030009389999999997 -0.032541335000000005 -0.031366624999999995 0.05136365 0.050418649999999995 0.04945501 0.021017965 0.021907015000000002 -0.088841455 -0.088187825 -0.030443665 -0.029758965 -0.03096766 -0.031154800000000003 -0.02925051 -0.03115987 -0.030028115 -0.03039133 -0.031520235 -0.02961196 -0.03161046 -0.031240410000000003 -0.03053845 -0.029604835 -0.028746624999999998 -0.03065621 -0.03146571 0.045158015 0.045116885 0.04467672 0.03488676 0.033346064999999994 0.001379995 -4.115e-05 0.001316995 -0.00523304 -0.005370715 -0.006758735 -0.030887225 -0.031296685 -0.029586750000000002 -0.02746721 -0.028760245 -0.028688975 -0.0292418 0.058651325000000004 0.05896557 0.058058885000000005 0.00034014500000000003 0.0093712 -0.089048815 -0.088252625 0.009256795 0.00834259 -0.029136925 -0.0293081 -0.0280278 -0.02933454 -0.0286234 0.012998485 0.015791055 -0.08341325499999999 -0.081380415 -0.08329700000000001 -0.02879188 0.04072682 0.03933877 0.038806759999999996 0.008478349999999999 0.01053037 0.00809322 0.002590035 0.002040275 -0.0030216749999999997 -0.00572506 -0.019613895 -0.019343285 0.046316275000000004 0.045946829999999994 0.045911435 -0.06563239500000001 -0.06487137500000001 -0.06403591 -0.028781475 -0.02709449 -0.028155925 -0.027523835 -0.028145875 -0.028150945 -0.02738688 -0.026982325 -0.028531415 -0.027026385 -0.02538545 -0.027510245 -0.027835885 0.00019117500000000003 -0.0011695899999999999 -0.000512585 0.00199689 -0.000401105 -0.06684578499999999 -0.06679758499999999 0.013328685 -0.0003093500000000001 -0.06257997 -0.062939935 -0.026934220000000002 -0.02696066 -0.02471601 -0.02619973 -0.02556259 -0.09292205 -0.09244752 -0.09271529 0.002243625 -0.0007615149999999999 0.03753567 0.038510470000000005 -0.02790156 -0.02790167 -0.02745175 -0.023014185 -0.023498045000000002 -0.027850005 -0.02491571 -0.026762925 -0.0296831 0.017063195 0.016903125 0.02047922 0.004525755 0.00328774 -0.008472795 -0.025234655 -0.024609105 -0.052803585 -0.052713430000000006 -0.049986565 -0.047209274999999995 0.047739645 0.047923315 0.00558518 0.006497015 0.01222611 0.014738675 0.013287175 -0.026361000000000002 -0.025470680000000002 -0.025001255 -0.025745945 -0.02273619 0.00754341 0.00711258 0.0023789650000000002 0.0024777650000000003 -0.00119342 0.0001435850000000001 -0.00154273 0.001459105 0.0065959799999999996 -0.024480445 -0.024481965 -0.02647046 -0.022849335 -0.025334719999999998 -0.0238685 -0.02625382 -0.068244005 -0.0658152 -0.06482286000000001 -0.024369775 -0.02424641 0.059697625000000004 -0.017097225 -0.016346895 -0.01497285 -0.02677184 -0.026770955 -0.024365505000000003 -0.02541626 -0.025287425 -0.024235785 -0.024334725 -0.02632474 -0.022179459999999998 -0.024022235 -0.024417365 -0.02242887 -0.02255753 -0.01531646 -0.01355653 -0.01335965 0.01104935 0.010708295 -0.088380775 -0.08851127 -0.08688628500000001 -0.03328297 -0.03582958 -0.01679691 -0.01782694 -0.01624072 -0.023992275 -0.022616104999999997 0.009454195 0.00825255 -0.001676035 -0.00459426 0.002107645 -0.068725915 -0.06740424 -0.062396335 -0.062079495 0.005178395000000001 -0.05222169 -0.051614395 -0.051523345 -0.02199851 -0.02289164 -0.021004235000000003 -0.060891985 -0.061655114999999996 -0.062293509999999996 -0.002670545 0.017320225 0.017957345 0.017408140000000003 0.042668029999999996 0.041829500000000006 -0.061124915 -0.022331685 -0.021412584999999998 -0.02318823 -0.020732315 -0.036878205 -0.036939534999999996 -0.03532437 -0.06715615999999999 0.015071504999999999 0.016451595 0.015193869999999998 -0.021544225 -0.021290089999999998 0.050606815 0.049655674999999996 0.049461149999999995 -0.04958503 -0.02001271 -0.01994963 -0.02014137 -0.02131252 -0.091156735 -0.09066096500000001 -0.09050788000000001 -0.0022855099999999997 0.014517285000000001 0.01798898 -0.056206535 -0.058345419999999995 -0.055137605 -0.044299295 -0.04091781 -0.040374234999999994 -0.01913807 -0.020464085 -0.019592355 -0.02272207 -0.02071212 -0.03873686 -0.035444575 -0.037249594999999996 0.007840995 0.006876465 0.00914934 -0.019001025 -0.016521785 -0.017767775 -0.020375675 -0.018938925000000002 -0.018393510000000002 -0.019250055000000002 -0.026277025 -0.026253344999999997 0.010141225 0.007709205 -0.068111965 -0.068295675 -0.06599441 -0.02149715 -0.0207745 -0.01985795 0.04824329 0.048291785000000004 -0.00532005 -0.006844595 -0.005281825 0.016367005 0.014501775 -0.057474664999999994 -0.056526765 -0.0563169 -0.017909325 -0.019578735 -0.01835276 0.00979697 0.007615545 -0.01846422 -0.01954436 -0.018787125000000002 -0.01890967 -0.018617555 0.027993405 0.027568965 0.025897370000000003 -0.007245665 0.00716782 0.005461475 0.004444485 -0.04087672 -0.03887993 -0.017456665 0.006565505 0.0061508050000000005 -0.01739433 -0.018465389999999998 -0.018064240000000002 -0.01918804 -0.016838264999999998 0.01756009 0.04268563 0.020394275 0.00689571 0.004829325000000001 -0.01658022 -0.017625625 -0.017294595 -0.016331385 -0.01760803 -0.016518835 -0.01763163 -0.01596222 -0.017281225 -0.019671765 0.011707124999999999 0.011292425 0.00909314 -0.01246483 -0.01761502 -0.01852127 -0.01661898 -0.015346685 -0.016785635 -0.018153405 -0.01726708 -0.015342084999999998 -0.015111475 -0.018386945000000002 0.042045515000000006 0.004809505 -0.0007934650000000001 -0.01514234 -0.015687755 -0.01545345 -0.01702795 -0.015982545 -0.01530195 -0.015035305 -0.01499411 -0.016083305 -0.014899989999999998 -0.016176634999999998 -0.01490168 -0.016520525 -0.016119375 -0.01596446 -0.014433600000000001 -0.01515473 -0.01481756 -0.016857695 -0.08486064500000001 -0.0846472 -0.082945905 0.01200043 0.014512995 -0.014822965 -0.017040075000000002 -0.01431329 -0.013193425 0.050868545 0.047721205 0.043303245000000004 0.04448107 -0.015632979999999998 -0.01416637 -0.014508569999999998 -0.013825790000000001 -0.01454468 -0.016588755 -0.01347249 0.0006933 -0.014441765 -0.01278346 -0.014552369999999999 -0.0132741 -0.06592399 -0.066365655 -0.06484198499999999 -0.01426049 -0.01282049 -0.01321191 -0.012968225 -0.013312115 -0.011892335 -0.01301606 -0.013999919999999999 -0.014166575 -0.01221421 -0.013394320000000001 -0.014066700000000001 -0.01228099 -0.011630725 0.022448715 0.022212654999999998 -0.011320015 -0.012400625 -0.011217065 -0.01317115 -0.01251446 -0.012028919999999999 -0.01107446 -0.010905024999999999 -0.012250905 -0.01066134 -0.01322746 -0.012419969999999999 -0.01280393 0.045714865 0.0453225 -0.002951435 -0.00489281 -0.00949085 -0.00502912 -0.0012946900000000003 0.00699811 -0.065349345 -0.06375286 -0.009998585 -0.00912511 0.011367045 -0.011639304999999999 -0.012249355 -0.011043214999999999 0.04395559 0.044913395 0.044176005000000004 -0.010226065 -0.00961602 -0.012209765000000001 -0.00851297 -0.011106715 -0.010501115 -0.00941224 -0.010210425 -0.09107998 -0.091400145 -0.011013760000000001 -0.009945425 -0.038305595 -0.036690429999999996 -0.011631595 -0.010041495 -0.01025267 -0.00958029 -0.01071791 -0.01019879 -0.0069367249999999995 -0.004466495 0.00238173 0.008744105 -0.010187345 -0.009597375 -0.054779535000000004 -0.054086425 -0.05586724 -0.012003745 -0.009959345 -0.008016434999999999 -0.00856892 -0.010835375 -0.00959088 -0.008629875 -0.00794231 -0.00865963 -0.00993837 -0.010452045 -0.00968534 -0.0077185050000000005 0.058419055 0.058476694999999995 0.003703235 -0.0074024699999999995 -0.009488685 -0.008328175 -0.009119745 -0.0072193399999999994 -0.00874683 -0.00755957 -0.008917445 -0.008418 -0.009567205 -0.011698745 -0.01373126 -0.00849859 -0.00551559 0.05136979 -0.015245635 -0.007140405 -0.007697245 -0.053518195000000005 -0.055104089999999994 -0.008927185 -0.00689467 0.059105185000000005 0.009083315 -0.007377815 -0.007535635000000001 -0.00657778 -0.0064195450000000005 -0.00764267 -0.006418505 -0.0707483 -0.07034309999999999 -0.00659597 -0.08875678000000001 -0.087799825 0.0121357 0.01489625 0.01198374 -0.00105919 0.00956052 0.00854353 -0.022490665 -0.02249155 0.00928841 -0.044898125 -0.041677105 0.028139805 0.029491675000000002 0.02746279 -0.028364645 -0.02882376 -0.025832665 0.010198595000000001 0.00843293 0.008225505000000001 -0.012392239999999999 -0.01651699 -0.01360279 0.02236544 0.0240959 0.02204961 -0.064106395 0.053521125 0.054329485 0.05313565 0.01764328 0.01562552 0.01609203 0.054197785 0.052626450000000005 0.052372675 0.04027142 0.039077535 0.038713054999999996 0.04463871 0.04398502 0.0448575 -0.040369815 -0.0414092 -0.042284265 0.055382315 0.05563609 0.053137645 0.051312535 -0.036615734999999996 -0.036390345000000004 -0.03384504 0.016738219999999998 0.016629925 0.019312925 -0.04226307 -0.043051815 0.022209680000000002 0.02560216 0.024338685 0.023303585 0.02898059 0.028841755 0.030801605 0.045071164999999996 -0.02630425 -0.024817699999999998 -0.02777833 0.015544905000000001 0.01372055 0.014743945000000001 -0.04995763 -0.0494635 -0.04777238 -0.04917998 -0.07190063499999999 -0.072803605 0.007520275 0.00981729 0.01448 0.01290031 0.01332509 -0.04890928 -0.0502291 -0.025257505 -0.023254135000000002 -0.02493733 -0.07040550500000001 -0.07121322999999999 -0.068952845 -0.070447975 0.035740275 0.03511067 0.037325485 -0.06733438 -0.06722227 -0.056851465000000004 -0.05735239 -0.056568435 0.018363545 0.019906149999999997 0.018116565 0.03168822 0.03143042 0.028992200000000003 0.018489715 0.017054705 0.01633979 -0.02980815 -0.03317099 -0.03371426 -0.066329445 -0.06658240500000001 -0.06912945000000001 -0.021836625 -0.019788754999999998 0.053890535 0.053830565 0.05176376 -0.07921291 -0.07993349 -0.07788897 -0.066558325 -0.067593285 -0.067423735 -0.06823146 0.041775845000000006 0.013133454999999999 0.014713145 -0.032777325 -0.03339267 -0.06674418 -0.06645134 -0.0677972 -0.06610777500000001 -0.06745363500000001 -0.06871852 -0.06940592500000001 -0.03103246 -0.03493857 -0.065252215 -0.06551112 -0.06718941 0.045612105 0.045207264999999996 0.048420405 0.050359755 0.04707637 -0.06490391000000001 -0.064194455 -0.06359780000000001 -0.06427661500000001 -0.06532382 -0.06624667000000001 -0.06552528499999999 0.056065495 0.05717559 0.055561655 0.057250024999999996 0.03703733 0.036722325 0.035656755 0.03903853 0.03777196 0.03802496 0.015855575 -0.03782646 -0.034736710000000004 -0.03613817 -0.06655215 -0.06734355 -0.06829576 -0.06450056 -0.06555358 -0.066063425 -0.06655048499999999 0.059385085 0.060008665 0.056616675000000005 0.05576779 0.055563845 0.03771063 0.036959105000000006 0.036223565 0.02860134 0.0273261 0.0271481 0.05217815 0.054626085000000005 0.05547497 -0.06460136999999999 -0.063296695 -0.06385740000000001 -0.065034465 0.023928025 0.02254317 0.023287244999999998 0.037278704999999995 0.035274215 0.0364091 -0.062858115 -0.06292972 -0.064689215 -0.019372265 -0.02088939 -0.018470515 0.04977974 0.049268545 0.018003619999999998 0.015985859999999998 -0.014052180000000001 -0.013151315 -0.011992804999999999 -0.062250904999999995 -0.063827 -0.065494885 -0.06485595999999999 0.010971045 0.01008754 0.01732423 0.018347625 0.04988929 0.049949259999999995 -0.01557959 -0.017763595 -0.013631435 -0.06465643 -0.06629470500000001 -0.06723821499999999 -0.06374766000000001 -0.062438900000000006 0.040311765 0.040328055 0.03842988 -0.06365786000000001 -0.06352527499999999 -0.064093815 -0.039046315 -0.03621512 -0.036033515 0.03990331 0.03900492 0.03900129 0.029141515 0.027974685 0.030119439999999997 0.020589355 0.02105628 0.022158285 0.024223505 0.020776615 0.022374909999999998 0.023727235 0.020280344999999998 0.029277485 0.02654525 0.028554035 0.02559984 0.023301265 -0.062043305 -0.06234941 -0.06023569 -0.061182975 -0.06044329 -0.06072416 -0.06165184 -0.060532995 -0.062247735 -0.062708155 -0.061637255 -0.06321652 -0.062454375 -0.06260253 -0.063933215 -0.06319793 0.02564148 0.026619405 0.037811035 0.050091465 0.05221088 0.02640928 -0.062404470000000004 -0.062624835 -0.061868835 -0.03559499 -0.038426185 0.02338409 0.023121105 0.022610865 -0.05835535 -0.059423279999999995 -0.05863622 -0.078095855 -0.07709806 -0.054633194999999996 -0.05682244 -0.051883405 -0.053714540000000005 0.047345475 -0.034181535 -0.034120205 0.025261325 0.022534495 0.019832005 0.01865593 0.018950875 0.016148155 -0.018737234999999998 -0.01892481 -0.021404525 -0.01212012 -0.012350425 -0.011217125 -0.066630055 -0.06759912000000001 -0.066478595 -0.058113695 -0.060145985 -0.05906373 -0.061454435 -0.0582034 -0.02042273 -0.023621435000000003 -0.021167685 0.01808233 0.01539933 0.011979509999999999 0.0133596 0.012641215 0.016265790000000002 0.014652755 0.014147525000000001 0.021811205 0.021564225 -0.058426820000000004 -0.05712594 -0.06035072 -0.06051132 -0.05913495 -0.06122616 -0.060653065 -0.06021272 -0.061541815 -0.04701358 -0.047557155000000004 -0.042390415 -0.04325408 -0.040801625 -0.019566265 -0.01721127 -0.020246595 -0.05644569 -0.05761765 -0.055292869999999994 -0.057050580000000004 -0.05603057 -0.0562167 -0.05772698 -0.05966601 -0.059070115 -0.056859994999999997 -0.058580825 -0.057117945 -0.05908919 -0.060530885 -0.06022213 -0.0571657 -0.058279075 -0.059949525000000004 -0.059306849999999994 -0.058866505 0.057024925000000004 0.05733917 -0.03644453 -0.033744115 -0.030919235 -0.05575395 -0.05444918 -0.05554455 -0.05843141 -0.049811259999999996 -0.052618979999999996 -0.05230366 -0.0513812 -0.050462545 -0.044899725 -0.047584705 -0.024086515 -0.02389894 -0.01822862 -0.021263945 -0.0533102 -0.052744635 -0.054844710000000005 -0.05577481 0.019505695 0.019282345 -0.062410745000000004 -0.06287232 -0.059591275 0.02644403 0.027025465 0.024690155 0.058073255 0.057984549999999996 0.02251695 0.02277519 0.016361005 0.01608134 0.019207685000000002 -0.017074560000000003 -0.019554275 -0.054366794999999996 -0.054624745 -0.057530905 -0.057702804999999996 -0.050079015000000004 -0.049590035000000005 -0.05391477 0.05412293 -0.016482585 -0.01658986 -0.019819025 0.012974435 0.01458747 0.041005095000000005 0.022534975 0.020545315 0.021194289999999998 -0.051034025 -0.048568175000000005 -0.04885102 0.02101467 0.020719725 -0.053057099999999996 -0.05372925 -0.05643618 -0.057336685 -0.04739427 -0.05027211 -0.04808691 0.016160735 0.014249145 0.016814995 0.031534325 0.02803961 0.030763415 0.033209245 0.031053835 0.0312185 0.035883225000000005 0.034829175000000004 0.03441799 0.021839684999999998 0.019550829999999998 0.020398645 0.021756860000000003 0.02055941 0.02218932 -0.054068635 -0.054654385 -0.05323935 -0.055616405 -0.053501565 -0.057146135 -0.055766880000000005 -0.056495485 -0.04645156 -0.04426636 -0.06910142 -0.068465015 0.04062235 0.042520525 -0.071446255 -0.07213958 -0.072416885 0.021360505 0.019370844999999998 0.022924785 0.021333015 -0.051919185 -0.052195805 -0.050803724999999994 -0.05482108 -0.0558565 -0.05549038 -0.031984105 -0.032280329999999996 -0.034804274999999996 0.03170784 0.029707305 0.031363405 -0.030858254999999998 -0.032668815000000004 0.01834044 0.015895825 0.019188055 0.019893055 0.01948522 -0.02232545 -0.020377295 -0.01949992 -0.02133225 -0.02021546 -0.09189456 -0.0908991 -0.050971569999999994 -0.052579185 -0.05538211 -0.051967675000000005 -0.05106456 0.034352845 0.03466785 0.03317125 0.031552835 0.031360145 0.0295523 0.04055322 0.04031013 0.0435365 -0.05866317 -0.058523395 0.024826465 0.02365726 -0.0506487 -0.05161072 -0.053147454999999996 -0.05455547 -0.010344175 -0.010442614999999999 -0.01108526 0.030613155 0.03129017 0.019084320000000002 0.018780085000000002 0.016872535 0.040993745 0.040261225 0.045570084999999996 0.045939530000000006 0.034191055 0.03320215 0.02499079 -0.023206205 -0.041512565 -0.03760268 -0.035359525 -0.018248300000000002 -0.02070205 -0.027268935 -0.027529514999999997 -0.02578887 -0.04960132 -0.050739234999999994 -0.0495223 -0.050724704999999995 -0.05136225 -0.05209857 -0.052029295 -0.053904820000000006 -0.032931895 -0.03040795 0.012861805 0.012062675 0.01173536 0.029362065 0.030980479999999998 0.03061935 0.028820855 -0.01717153 -0.016892209999999998 0.028078315 0.028394339999999997 0.025587615 -0.04934294 -0.05024409 -0.02061761 -0.022280284999999997 0.034457795 0.0333071 0.03258406 0.03079176 0.029612175 0.029434175 -0.054950929999999995 -0.054371249999999996 -0.091728885 -0.092722735 -0.09218263 -0.06882431 -0.048262815 -0.048248285 0.02655288 0.02629508 -0.06599218 -0.06599864999999999 0.027008070000000002 0.024310949999999998 0.02509893 0.025843005 -0.09140094 -0.090996985 -0.091353645 0.02630356 0.027349955000000002 0.02983219 0.027925195 0.025883595 0.02770013 0.027735765 -0.048431804999999994 -0.048754675 -0.048690185 -0.048582165 -0.0026391 0.00159809 0.024314715 0.02265533 0.025337375000000002 0.03529877 0.023982095000000002 0.014980070000000002 0.02963603 0.028625195 0.033269045 0.032147565 0.03643046 0.036952105 0.035863395 -0.016589835 -0.018176055 0.027263585 0.026119820000000002 0.027919225 -0.06476425499999999 -0.06400323499999999 -0.047416169999999994 -0.05718531 -0.059870295000000004 -0.059779115 -0.038915775 -0.03637047 0.01157797 0.0110638 -0.027536775 -0.048685900000000004 0.0327722 0.012463765 0.011662805 0.039739515 0.03859956 0.039925485 0.027320465 0.025781085 0.02744302 -0.0745738 -0.07305151500000001 -0.074120875 -0.04732268 0.02638045 0.02641984 0.02904716 0.00983739 -0.07189117 0.013989475000000001 0.009082575 0.03769434 0.03737029 0.021860625 0.022973025 0.01283896 0.013686575 -0.025031585000000002 0.036005035000000005 0.03468906 0.035442415000000005 -0.069918075 0.058707960000000003 0.058987765 0.059518335 0.00890506 -0.02597724 -0.028020545 -0.027416855 0.03173755 0.031957565 0.030665025 0.022214175 0.01992532 -0.037981495000000004 -0.035681455 -0.034343429999999994 -0.035219749999999994 -0.03602228 0.045930075 0.046605905 0.04446119 -0.04684755 -0.086439645 -0.08672553499999999 0.042183035 0.041027905 0.04105481 0.0015673150000000001 0.004899715000000001 0.03092857 0.01209407 0.012268945 0.057606515 0.05740257 0.03114729 0.029156545 0.029502175 0.02798326 0.028532824999999998 -0.055327180000000004 -0.054748044999999995 -0.052252595 0.02606828 0.060686865 0.060753885 0.06040383 0.04608563 0.037155675 0.034901484999999996 -0.022928845 -0.020031685 -0.02136843 0.035321585 0.036472215 0.033831665 -0.05122767 -0.04939213 -0.048915639999999996 -0.02513886 -0.02459559 0.02818839 -0.06955111 -0.0682923 0.029451545000000003 -0.019345960000000002 0.04609971 0.04767357 0.046227235000000005 0.047066335 0.0342253 0.034976825 0.03722162 0.03905103 -0.023058210000000003 -0.02461086 -0.02409476 -0.025912455 -0.024359804999999998 -0.022204540000000002 0.043716785 0.043040955000000006 0.02080678 0.020666505 0.021837265 -0.02954591 0.010686965 0.011651495000000001 -0.08635459 -0.086048005 -0.086368085 -0.013464384999999999 -0.012158519999999999 -0.012402635 0.01096045 0.009751639999999999 -0.023754365 0.04790527 -0.061995695 -0.06481516500000001 0.056314545 0.057881915 0.05752471 0.01089522 0.008399245 0.029933719999999997 0.05797026 0.058399665 0.027468985 0.057673085 0.056238745 0.05739168 -0.03339082 -0.035925235 0.056817759999999995 0.05545773 0.05509522 0.05662772 0.05735113 0.05745398 0.05913062 0.05922663 0.05998268 -0.06265028 -0.062348280000000006 0.05246861 0.05343225 -0.051442245 -0.0500341 -0.050758075 -0.051637245 -0.052293195 -0.062690195 -0.06193841 -0.062269365 -0.01629959 -0.02008006 -0.01876164 -0.014138055 -0.020194495 -0.07682342 -0.07616275 -0.07476883000000001 0.04160495 0.009780335 0.00990889 -0.019637130000000003 -0.021469460000000003 -0.033359425 0.03500259 0.033930065 -0.01221856 -0.020596160000000002 0.01380657 0.04354124 0.043514335 0.03213866 0.03014058 0.031931799999999996 0.0310919 0.05833014 0.04253596 0.041396015 -0.048406605000000005 -0.047722435 -0.01842407 -0.018688535 -0.025933235 0.036832635 0.034828145000000005 0.034004075 0.054111969999999995 -0.0495142 -0.049205545 -0.050056105000000004 0.011455380000000001 -0.036590655 -0.028949855 -0.03023662 -0.025826695 0.058385755 0.05910599 -0.006943484999999999 0.03358551 -0.08096089 -0.081242905 0.03793572 0.039172925 0.038097044999999996 -0.047116105 -0.046675455 -0.046374235 0.037686899999999995 0.03907495 0.044860705 0.046264360000000004 0.06030782 0.048731250000000004 0.048219109999999996 0.031263225 0.030996484999999997 -0.06197434 -0.06196058 -0.06252793 0.009110645 0.011075709999999999 0.02353903 0.02521629 0.02329837 -0.039215225 -0.04548861 -0.04569814 -0.06666709 -0.066699765 0.04326493 0.042066605 -0.03184805 -0.0323189 0.01561719 0.01623464 -0.032371159999999996 -0.03546091 0.032430055 0.036133084999999995 0.012065865 0.010601655000000001 0.020950225 0.019610535 0.02040763 0.02411771 0.013890220000000002 0.01356633 0.012342465 -0.05080046 0.051188765 0.013535155 0.012688575 0.034586955 0.03371735 -0.061854965 -0.062420245 -0.0615307 0.02065361 -0.088483385 -0.08851634 -0.088793495 -0.029951264999999998 -0.0284712 0.043330035 0.044661334999999996 0.03980516 0.040058159999999995 -0.03207789 -0.06573672 -0.022972605 0.011509585 0.033580540000000006 -0.019292845 0.014668775 0.040945115000000004 -0.04642018 -0.023907815 -0.07158906000000001 -0.0713361 0.04501699 0.045756555 -0.04361759 -0.045226085 -0.043273784999999995 -0.043552715000000006 -0.043949515 -0.042284125000000006 -0.04403275 -0.04759516 -0.0476254 -0.05110932 0.040656465 -0.01452921 -0.01321079 -0.035520239999999995 0.026914615 0.02452265 0.024645205 0.02661939 0.024946955 0.02448003 -0.0134902 -0.012337859999999999 -0.01540407 0.044103875 0.043854035 -0.06399033000000001 -0.063497015 -0.063237825 0.016220025 0.017971355 0.023735075 0.016988114999999998 0.016836155 -0.05173865 -0.052267625 -0.03121439 -0.02879264 0.036559455000000005 0.038422245 -0.046796755 -0.045206380000000004 -0.046433245 0.044993345 0.04081466 0.042514595 -0.009408960000000001 -0.01117934 -0.02329525 0.0230861 0.022781995 0.02350622 0.03289328 0.037018604999999996 0.039929900000000004 -0.043343185 -0.04120186 -0.043451385 -0.042182795 0.041414190000000003 0.04199291 0.041948275 0.01591579 0.014187665 0.03154605 0.02498334 0.021993525 -0.039790435 -0.04132953 0.040950675000000006 0.04169508 0.057525555 0.05863814 -0.08121853 -0.08338646 -0.08104404 0.04602127 0.041792155 0.042840605000000004 -0.039721035 0.042621815 -0.0691558 -0.06765811 0.020210714999999997 0.021549605 -0.005765235 -0.039758125000000005 -0.03927809 -0.039339265 -0.03992063 -0.036914595 -0.00835774 -0.00455591 -0.014892180000000001 0.01981915 0.02429557 0.023037135 0.023979544999999998 0.027017485 0.041031535 -0.021162800000000002 -0.03808667 -0.036142415 -0.037264435 -0.009416325 -0.0097467 -0.009914095000000001 -0.017672775 -0.020650925 0.026266184999999997 0.02289274 -0.017364395 -0.01524002 0.006707164999999999 0.00607701 -0.04701926 -0.03974341 -0.037481244999999996 -0.03934384 -0.037266314999999994 -0.061243765000000006 -0.061517465 -0.061680689999999996 -0.044280595 -0.04558781 -0.0274333 -0.027822595 -0.028787995 0.025165315 0.022399525 0.03497944 -0.038382895 -0.07130561 -0.07227338999999999 -0.07185543999999999 -0.036667370000000005 -0.037975135 -0.036306055000000004 0.05424774 0.03062226 -0.026505439999999998 -0.04465845 -0.042058769999999995 -0.04325188 -0.07645360500000001 -0.076706385 -0.07715673 0.033835655 -0.014354555 -0.015431325 -0.014999985 -0.013361225000000001 -0.03954354 -0.039182225 -0.012170549999999999 -0.014579985 -0.014459595 -0.01533108 0.025390379999999997 -0.05304382 -0.054778275 -0.034776065 -0.036544309999999997 -0.088279415 -0.08722856 -0.04770963 -0.047594985 0.006836045000000001 -0.03563007 -0.034053915000000004 -0.052135715 -0.050290225 -0.05083029 0.02742266 -0.029197454999999997 -0.00429098 -0.0036021449999999997 -0.08861872 -0.088469805 -0.089259245 -0.034118405 -0.06341351 -0.06452039 0.0436405 0.044229605000000005 -0.08566325999999999 -0.08651281 -0.088789845 -0.089352035 -0.089440295 -0.08940723 -0.06221593 -0.06198199 -0.06182535 -0.06231785 -0.06192727 -0.062540975 -0.061824155000000006 -0.06259648000000001 -0.09186736000000001 -0.09237804499999999 -0.08949394 -0.06162339 -0.061160185 -0.062465145 -0.086663115 -0.08569905 -0.087125545 -0.06105774 -0.059233135 -0.058288935 -0.089105615 -0.019342385 -0.021834279999999998 -0.023306175 -0.08469681 -0.085715845 -0.085142445 -0.09390965 -0.09390673 -0.09341957000000001 -0.09361362000000001 -0.09279548 -0.03926553 -0.039166845 -0.040420325 -0.042072035 0.03783138 -0.09213578 -0.09194173 -0.062812615 -0.06204029 -0.08984510000000001 -0.089825035 0.0568018 0.056582715 -0.0929566 -0.092471845 -0.093159455 -0.09026256 -0.090919865 0.0256363 0.027457315 0.03199805 0.03431592 0.03126626 -0.037784805000000005 -0.038373905 0.031946835 0.034553595000000006 0.03275208 -0.00923927 -0.008972485 -0.008962825 -0.09268586000000001 -0.09280656500000001 -0.093160505 -0.09352756000000001 -0.09401231500000001 -0.08861816 -0.08770655499999999 -0.089682295 -0.089939515 -0.050009445 -0.050318100000000004 -0.09128733 -0.09005412 -0.09100454 -0.008839534999999999 -0.009240305 -0.055783775 -0.05858095 -0.057270595 -0.08790877999999999 -0.087901835 -0.08881950499999999 -0.063395435 -0.06266709000000001 -0.06255407 -0.06231206 -0.06258761 0.020241620000000002 0.019070860000000002 -0.05339308 -0.053151735000000006 -0.052071395000000006 -0.02619496 -0.028377205 -0.026036575 -0.08511277 -0.08615391 -0.01033852 -0.011269685 -0.010160775 -0.033995725000000004 -0.03279156 0.017572155 0.015294480000000001 0.016228025 -0.062029635 -0.061462285000000005 0.00393162 0.001742015 0.004793635 0.038058394999999995 0.039960825 0.04020448 0.037412965 0.03716931 -0.06778469 -0.069474325 0.034153535 0.032903 0.034456155 -0.06852662500000001 -0.013845775000000001 -0.014863275 0.014323915 0.012979785 -0.06202236 -0.06188776 -0.062877655 -0.063020355 -0.087807635 -0.087426645 0.036180195 0.035442005 0.0342436 -0.04914753 -0.010092170000000001 -0.00934228 -0.00910632 -0.028976250000000002 -0.02623306 -0.08604867999999999 -0.08472083 -0.08713892 -0.089480165 -0.062587665 0.02485802 0.028063474999999997 -0.05169902 -0.05281208 -0.051512379999999997 -0.08749609 -0.088406815 0.039889725 0.04127533 0.039687655 -0.06931389499999999 -0.06256459 0.039860704999999996 0.04125607 0.040043515 -0.00758832 -0.009534790000000001 -0.01048345 -0.063119115 0.054766209999999996 -0.060504245 -0.061713215 -0.06250693 0.022008825000000003 0.023272300000000003 0.026810295 0.02807891 0.029416275 -0.088418525 -0.089443745 -0.00946557 -0.01057448 0.030174945 0.037202205 0.037840534999999995 0.03604569 0.023132025 -0.050542384999999995 -0.05153927 -0.051912935 0.031893415 0.030691194999999998 -0.09285725 -0.09112632500000001 -0.09130887500000001 -0.089283 -0.090396705 0.03667641 0.038129775000000005 0.039268105 -0.06241927 -0.06191397 -0.088028885 -0.08777839000000001 0.034863865 0.036428505 0.03654643 0.027103625 0.02659777 0.028710655 -0.09193074000000001 -0.0915768 -0.09163428500000001 -0.09143712 -0.09371011000000001 -0.084680015 -0.041928494999999996 -0.039394645000000006 -0.03958764 -0.0004090649999999999 -0.003383625 0.0005895500000000001 -0.011179555 -0.01051809 -0.010245185 0.035194185 0.035839615 -0.013048725 -0.01028629 0.02196622 0.020970839999999998 0.02268674 0.03645834 0.034521745 -0.061588260000000006 -0.061513235 -0.08962418999999999 -0.089507715 -0.08952463499999999 0.039050035 0.038012115 0.036217269999999996 -0.06269091 -0.023345045000000002 -0.012326364999999999 -0.09202989 0.02818861 0.02818898 0.02974033 -0.09008334 -0.091124495 -0.090449315 0.015580075 0.01785775 -0.06273672500000001 -0.06249734 -0.06306900500000001 -0.06768674999999999 -0.064742615 -0.068489555 -0.01751847 -0.01660883 -0.01636111 -0.092963165 -0.09304858 -0.021940414999999998 -0.025307195 -0.02241428 0.037631714999999996 0.038830119999999996 0.03744572 0.040095645 -0.043226975 0.02547541 -0.08932047 -0.0777169 -0.075163485 -0.07723722499999999 0.039010359999999994 0.039408625 0.040307915 -0.09094580499999999 -0.08764435000000001 -0.086559725 0.03425773 0.035810885 0.027546090000000002 0.02909781 0.031170539999999997 0.029474235 0.030904075 -0.061186205 -0.061022980000000004 -0.011213545 -0.012732955 -0.01270311 -0.08640545499999999 -0.08688375500000001 -0.061743635 -0.087678315 -0.078196545 -0.07795540000000001 -0.078458485 -0.08713594499999999 -0.08536159 -0.08656048 -0.08441086 0.038470225 0.03976778 0.018087905 0.019189909999999998 0.028831345 0.02127096 0.020709915000000002 0.019689275 0.03342776 0.033288925 0.02986288 0.029401475 0.030201365 -0.058202215 -0.059452325 -0.05660288 -0.08797408000000001 -0.08672617 -0.05075561 -0.050381945 0.02651099 0.026887415 -0.02896953 -0.02542326 -0.02781186 -0.050442835000000005 -0.061735535 -0.087388735 -0.0019700300000000002 0.0005678599999999999 0.00394646 -0.09244601499999999 -0.09278081 -0.092572545 0.03284319 0.03533051 0.03865101 0.037272655 0.037085045 -0.038662395 -0.03693381 -0.037478385 -0.063861115 -0.061592955 -0.05998127 -0.09145921 -0.09100548 -0.070194995 -0.069403595 -0.01184003 -0.01218915 -0.06479357 -0.064129205 -0.063751395 -0.08903845 0.034701285 -0.09032592 -0.09017058 0.02624632 -0.019239435 -0.021496225 -0.02102896 0.0355421 0.03374076 0.03488268 0.03583451 0.040057585 0.038901069999999996 -0.029908415 -0.08010675 -0.079158155 0.043126825 0.04224399 -0.07830809999999999 -0.07944976000000001 -0.07770749 -0.01215959 -0.01410606 -0.005619505 -0.0022409049999999996 -0.002458985 -0.005280585 -0.08988874499999999 0.024118285 0.025725315 -0.039838849999999995 -0.038306444999999995 -0.040025775 0.024335565 0.026899765 -0.011094355 -0.01240022 -0.012839575 -0.016462185 -0.063304125 -0.06249694 -0.050813634999999996 -0.052184185 0.024771345 0.0270917 -0.05214691 -0.053628385 -0.053871295 0.040841055 0.041027049999999995 0.040501555 0.041772995 -0.090199815 -0.03675261 0.02957262 0.027612770000000002 -0.048769469999999995 -0.04979862 0.042419745 0.042602555 0.03668995 0.038907 0.041239319999999996 -0.00658892 -0.00914969 -0.00564774 -0.051340159999999996 -0.05245173 -0.055183315 -0.053933205 0.045102085 -0.08634031 0.01849771 0.019431255 0.053015240000000005 0.051453615 0.051562445 0.03142489 0.030057069999999998 -0.062368675 -0.062747655 0.031585205 0.03209515 0.03368495 -0.0909014 -0.09126737500000001 -0.090460655 -0.09124706 -0.090217245 -0.06352648999999999 -0.08889589 0.038994395 0.037074335 -0.010170435 0.018804795 0.016945695 -0.013897654999999998 -0.00980989 -0.015201014999999998 -0.036499805 -0.037208375 -0.04005178 0.032274689999999995 0.02333631 0.02165905 0.020628565 0.019116295 0.02010884 -0.062621205 -0.060054545 -0.06264835 -0.04356790000000001 -0.044806 -0.04198873 0.03737223 0.037268035 0.03136096 0.03209915 0.009246785 0.01021735 -0.087296795 -0.088213335 -0.039698910000000004 -0.040693560000000004 -0.03792649 0.030562925 0.029440755 -0.09010891500000001 -0.09075777 -0.07366344 -0.07391003500000001 -0.074330955 0.030707724999999998 -0.06231817 -0.06213316 -0.08381561000000001 -0.08503559 -0.051212610000000006 -0.051867025 -0.051249585 -0.090429605 -0.08438455 0.042518404999999995 0.05521527 0.054491515000000004 0.04499606 -0.08318566 0.02825771 -0.06168003 -0.016394230000000003 -0.063091275 0.02670636 -0.037398005 -0.036403355 -0.09213017000000001 -0.09260470000000001 0.021167175 0.031170169999999997 0.04030515 0.04107178 0.037013075 0.005154634999999999 0.002616745 0.038445345 0.033445565 -0.05412633 -0.05403671 0.005264245 0.003353345 0.00636316 -0.08734584000000001 0.042123665000000005 0.042370655 0.039435865 0.038740659999999996 0.00791707 -0.058889045 -0.06173849 -0.062234279999999996 -0.03107762 -0.004073955 -0.0012802 -0.003618235 0.031631574999999995 0.041393435 0.040455035 -0.06259806 -0.091055255 -0.09032404 -0.06344259999999999 -0.05358688 -0.010618514999999999 -0.009684145 0.038833999999999994 0.040459655 -0.010575560000000001 0.021198460000000002 0.033327640000000006 -0.090595695 -0.089970045 0.043578825 0.044388335 0.04364062 0.043874540000000004 0.042822655 0.03838585 0.040268755 0.053458030000000004 0.05531954 0.054663359999999994 -0.038999030000000004 -0.037338575 -0.037130634999999995 -0.052597055000000004 -0.05180431 -0.052285435000000005 -0.052728945 -0.05321007 -0.09074953499999999 -0.082541275 -0.08164111 -0.082639625 -0.09087257 0.042433255 0.04393714 0.040316375 0.04136639 -0.052855495 -0.053100415 -0.05299901 0.0425573 0.042024160000000005 -0.0839376 -0.08303743499999999 -0.05123655 -0.05029864 -0.0500425 -0.06753523 -0.06873474 -0.08432302 0.044934265 0.044132795 -0.039344945 -0.039243475 -0.03665484 -0.040362335 -0.03767223 0.059139540000000004 0.05999012 -0.012696124999999999 0.05895905 -0.01047246 -0.0108631 0.007802095 -0.064078725 0.044091665 0.044481065 -0.011539315000000001 -0.05130429 -0.050992670000000004 0.051564965000000004 0.050839405000000004 0.05338865 0.05459162 0.05531718 0.059843505 0.059857415 0.040527515 0.045088790000000004 -0.085462695 -0.02960256 -0.029564205000000003 -0.033202745000000006 -0.035609989999999994 -0.052225115 -0.051612099999999994 0.05734877 0.058501705 0.020580095 0.019738445 0.051844945 0.04575836 -0.06342756499999999 -0.062710745 0.050080035 0.05652251 -0.052827135 -0.053914840000000006 0.06028847 0.060196534999999995 -0.035630640000000005 -0.03573211 0.05931208 0.059710475 0.03916359 0.03814249 -0.04749142 -0.04782654 -0.070138095 -0.067965295 -0.06445897 -0.063332935 -0.06366772500000001 -0.07150176999999999 -0.07251396 -0.06594629499999999 -0.06685031999999999 -0.044538965 -0.047666875 -0.070416465 -0.07151579999999999 -0.07714452 -0.07535187 -0.07590081000000001 -0.05414299 -0.05522971 -0.06460872 -0.0746864 -0.063643315 -0.062412930000000005 -0.063226625 -0.064582395 -0.06345635999999999 0.05594118 0.05687894 -0.06626597000000001 -0.06605460499999999 -0.06370874 -0.046045035 -0.045205974999999995 -0.045916559999999995 0.058373850000000005 0.05922591 0.057611065 0.058407265 0.05764376 0.055852269999999996 0.056399674999999996 0.055603475 0.054448300000000005 -0.07501168 -0.07276229000000001 -0.07475492 -0.029796829999999996 -0.030722964999999998 -0.028675195 0.0577767 0.057777419999999996 0.04114131 -0.06495898 -0.063018955 -0.065878565 -0.06554612000000001 0.056534375 0.057131525 0.055403935 0.05664698 0.055883475 0.05446794 0.055432024999999996 0.054187940000000004 0.059163315 -0.051657395 -0.051704055 0.05239908 0.052570530000000004 -0.071425865 -0.03331005 -0.032009575 0.052059725 0.050270865 0.054811835 0.05322826 0.053712805 0.052721069999999995 0.05226962 0.05065221 -0.07494412 -0.07388739999999999 0.051641685 0.053817359999999995 0.051029939999999996 0.0493648 0.04949426 0.04825045 -0.012630985 -0.015750085 -0.07776566 -0.076312095 -0.075201645 0.04696304 0.043658785 0.045440335 0.04393768 0.046684144999999996 0.049871990000000005 0.047279260000000004 0.01782095 -0.05634884 -0.085933785 -0.090182895 -0.03375543 -0.029345505 -0.08932377 0.049492015 0.04959657 0.047979785 0.050129455 0.047826875000000005 0.046899285 -0.089128015 -0.08918644 -0.0334952 -0.086264495 -0.092418855 -0.06107611 -0.087178035 -0.08678327 -0.035351679999999996 -0.03295901 0.047140685 0.046863890000000005 -0.05759988 -0.05787866 -0.03477463 -0.03565043 -0.036402119999999996 -0.059690475 -0.059900339999999996 -0.06566713499999999 -0.030438019999999996 -0.02767546 -0.02906628 -0.06278142 -0.063572665 -0.072437945 -0.07175806500000001 -0.07710245 -0.06474127 -0.051453955 -0.061577400000000004 -0.0620051 -0.060495469999999996 -0.05415631 -0.053241015 -0.08081281 -0.08192326 -0.08200518500000001 -0.059192919999999996 -0.061618595 -0.06343038000000001 -0.060348330000000006 -0.06265767 -0.07041882 -0.07016206 -0.085897675 -0.08323354 -0.084160805 -0.041773199999999996 -0.04036663 -0.06736953 -0.06628171999999999 -0.060837495000000005 -0.063919545 -0.076029505 -0.03453158 -0.032922575 -0.032152485 -0.06991759 -0.07223980499999999 -0.07343366000000001 -0.07409433 -0.043013375 -0.041656555 -0.066938295 -0.06386885 -0.06471110499999999 -0.07060989000000001 -0.07002788 -0.06559724 -0.06593203 -0.039577114999999996 -0.036881065000000005 -0.04023459 -0.066779155 -0.064674965 -0.064841875 -0.06620665 -0.065240425 -0.066910895 -0.06802182500000001 -0.06832752 -0.06940552 -0.037644075 -0.03640679 -0.038843775 -0.09341926 -0.092885725 -0.032795165 -0.031186159999999997 -0.010668205 -0.0619597 -0.063185365 -0.049478919999999996 -0.04951122 -0.05127564 -0.08426568 -0.076489025 -0.075993225 -0.07709138 -0.07369337000000001 -0.07221411 -0.034026215 -0.03499254 -0.04479706 -0.044135565 -0.052442315 -0.040292085000000005 -0.038809800000000005 -0.041563345 -0.044755875 -0.045637525 -0.04610715 0.022608299999999998 -0.07719350999999999 -0.06759984499999999 -0.068413785 -0.074774785 -0.0734196 0.00847283 -0.04644103 -0.092928305 -0.093259285 -0.06867961 -0.066739585 -0.07526488 -0.04366594 -0.058027695000000004 -0.058633485 -0.069379385 -0.08613306 -0.066058835 -0.064585775 -0.07102308 -0.07240495 -0.07077512 -0.06713545500000001 -0.07073862 -0.06925603999999999 -0.042988135 -0.092441145 -0.03349744 -0.034154915 -0.06693204 -0.06504039 -0.067212 -0.061878905 -0.059663095 -0.031300065 -0.053531265 -0.0041531599999999995 -0.0015006549999999998 -0.06815587000000001 -0.06494835 -0.06532367 -0.070151005 -0.090915705 -0.0347451 -0.02979534 -0.03702928 -0.038552135 -0.039129344999999996 -0.0363807 -0.079134235 -0.053982705 -0.05287161 -0.05842021 -0.010993005 -0.07491548 -0.0732587 -0.0738801 -0.06460669 -0.0623795 -0.030478409999999997 -0.03216998 -0.02928861 -0.05500568 -0.045812994999999995 -0.044061565 -0.04400407 -0.08984792 -0.08931365 -0.08250906999999999 -0.08032543 -0.001935665 -0.033579375 -0.036372815 -0.09011968000000001 -0.072741375 -0.07139466 -0.06180046 -0.06106262 -0.06502358999999999 -0.06568143500000001 -0.066146305 -0.06324698000000001 -0.0633017 -0.043255484999999996 -0.043875794999999995 -0.07335786999999999 -0.027977605000000003 -0.027229465 -0.042526065 -0.040655535 -0.04106011 -0.07111394 -0.063812605 -0.063628355 0.03183715 0.029681739999999998 -0.02638701 -0.02748722 -0.02806432 -0.069881445 -0.07274576499999999 -0.046652055 -0.0670804 0.038426680000000005 0.03760522 -0.02307737 -0.06061205 -0.08576147 -0.08682912000000001 -0.08633786 0.03641598 0.03663927 0.03537242 0.033796110000000004 -0.07867363499999999 -0.07891478 -0.064826115 -0.08553608 -0.08624081 0.03488277 0.03542004 0.03361592 -0.08749126 -0.08876166 -0.008782845000000001 -0.038121685 -0.035407640000000004 -0.036475535 -0.037706585 -0.079323435 -0.068664205 -0.07346796 0.032162155 -0.04096667 -0.039992965 -0.042336055 -0.036177730000000005 -0.045227069999999994 -0.07955093499999999 -0.026252825 -0.06003301 -0.0590021 -0.058551530000000004 0.035527920000000004 0.035872295 0.02782115 0.0284398 0.026363659999999997 0.02822425 -0.064790915 -0.06723149 -0.06486589499999999 -0.087240235 0.014167530000000001 0.016731114999999998 0.016097075 -0.032761265 -0.03196251 0.034489660000000005 0.033270430000000004 0.03205405 0.03200643 0.03223424 0.029560129999999997 0.03134981 0.029488044999999997 0.027411905 -0.062241765000000004 -0.02501328 -0.027159154999999997 0.034774945 0.034460964999999996 -0.065708195 0.032848625 0.031065235 0.031458345 0.029848855 -0.06755471 0.02758188 0.02846631 -0.07541767499999999 -0.06343993 -0.061265935 0.031168795 0.031827825 0.0321609 0.03378284 0.031036539999999998 0.027870605 0.0325808 -0.08583313000000001 -0.08599641499999999 0.026318084999999998 -0.04843512 -0.025536404999999998 -0.019790715 -0.069618015 -0.069792255 -0.06796194 -0.015128415 -0.013783110000000001 0.030316210000000003 0.03097524 0.02919185 0.024163265 0.023947715 -0.027945820000000003 -0.027299175000000002 -0.026294055 0.02474262 0.024912595000000003 0.022542225 -0.046312255 -0.047022839999999996 -0.069129425 -0.06986283 -0.091659745 -0.091549155 -0.036011774999999996 0.021053085 0.02184799 -0.02735414 -0.056996785 -0.05246909 -0.05354943 0.000129035 0.000464405 0.027237025 0.027298325 0.026626705 0.02524416 0.02242032 0.023995785 0.01859498 0.019289215 0.017949525 0.0001788950000000001 -0.067957025 0.02828083 0.028613905000000002 0.027428245 0.024986285 0.02668859 0.02467188 0.022751885 -0.00400683 -0.00168513 -0.044132544999999995 -0.04372797 -0.00210153 0.024795065 0.02093118 0.016580169999999998 0.017698585 -0.00479318 -0.00484304 -0.07537714 -0.066389635 -0.06477795 -0.06392378500000001 0.021506245 0.02025787 -0.054950965000000004 -0.09019068499999999 0.02175469 0.022303125 0.016906354999999998 0.018670225 0.015322445 0.02233197 0.021660350000000002 0.019166335 0.019242555 -0.009619055000000001 -0.00669848 0.02339786 0.022658205 0.017996915000000002 0.015368759999999999 0.015444005 0.013873304999999999 0.01236464 -0.03550642 -0.039879745 -0.04031827 0.017405985 0.012410955 -0.01549119 0.020166265 0.01611924 0.015103925 -0.067429 -0.069259315 -0.062976725 -0.063326105 -0.07764760500000001 -0.085855425 -0.08394068499999999 -0.033300075 -0.03254883 -0.033356995 -0.08779448000000001 -0.055841644999999995 -0.055265585 -0.056643570000000004 -0.08597182 0.018892495000000002 -0.02375144 -0.02337095 -0.02274246 -0.035130425 -0.06374353499999999 -0.0640375 -0.064852685 -0.06273054 -0.062469995 -0.078648665 -0.07759664 -0.054173235 -0.055538705 -0.05680212 -0.06404842499999999 -0.061915355 -0.048764199999999994 -0.01704335 -0.01667174 -0.03424167 -0.033392955 -0.035302565 -0.0298818 -0.03060919 -0.028447430000000003 -0.02861453 -0.02989483 -0.07021372 -0.070756775 -0.08944083 -0.08972362 -0.05151135 -0.04889405 -0.049088530000000005 -0.03819033 -0.03532613 -0.03622398 -0.01982143 -0.017357765 -0.060524075 -0.013066945 -0.025108770000000002 -0.02690582 -0.025741430000000003 -0.026895250000000002 -0.028235490000000002 -0.057963904999999996 -0.05488932 -0.029169565 -0.02722948 -0.028334115 -0.0761549 -0.077560645 -0.076811595 -0.024133225 -0.02574576 -0.025800115 -0.048738955 -0.050535675 -0.073597285 -0.02756422 -0.07577007 -0.07514867 -0.026334145 -0.026000324999999998 -0.059234855 -0.06024648 -0.03837155 -0.03636591 -0.03611388 -0.0038027499999999997 -0.024741795 -0.026883445 -0.030843095 -0.03140783 -0.029993055 -0.04720034 -0.021436905 -0.0210865 -0.07312774999999999 -0.07228524 -0.01656824 -0.01799214 -0.01884448 -0.06676309 -0.06850092499999999 -0.03597765 -0.036826365 -0.07122711000000001 -0.072749395 -0.048224795 -0.075704555 -0.024713779999999998 -0.025608705000000002 -0.026842905 -0.025230370000000002 -0.04732815 -0.045406774999999996 -0.044154915 -0.022712735 -0.023877125 -0.021722224999999998 -0.02158657 -0.022987294999999998 -0.013102995 -0.013483285000000001 -0.076473195 -0.07645757 -0.077393885 -0.07598039000000001 -0.07690108000000001 -0.082668995 -0.081830755 -0.03750129 -0.038340405 -0.038340565 -0.019638285 -0.021030845 -0.026260245 -0.026188975 -0.064091025 -0.06251358 -0.062537365 -0.03413633 -0.027475565 -0.06934121 -0.06827512499999999 -0.06813529500000001 -0.053376494999999996 -0.052166094999999996 -0.05383676 -0.02372797 -0.025610115000000003 -0.023471005000000003 -0.013851745 -0.014167765 -0.020996729999999998 -0.02061624 -0.06153707 -0.05252023 -0.052944160000000004 -0.052554569999999995 -0.054207574999999994 -0.05708449 -0.055719019999999994 -0.054489945 -0.033159425 -0.034739965 -0.03275343 -0.06023211 -0.022005255 -0.02341999 -0.050825415 -0.051194425 -0.05225643 -0.015230965 -0.01368283 -0.040801304999999996 -0.06282373 -0.018547205 -0.016995045 -0.03297081 -0.031909915 -0.020673425000000002 -0.050081365 -0.02414543 -0.024281085 -0.022262490000000003 -0.02317904 0.023640305 0.02298686 -0.06472617 -0.02484219 -0.05839138 -0.05874949 -0.0529753 -0.05211092 -0.053842879999999996 -0.065140535 -0.06579838 -0.024463195 -0.023697855 -0.021217935 -0.023201020000000003 -0.019450835 -0.018719335 -0.02074959 -0.03766548 -0.014583974999999999 -0.05171929 -0.052143220000000004 -0.07545626 -0.07573798000000001 -0.07670562 -0.069109825 -0.08239123500000001 -0.08303258999999999 -0.081586325 -0.07974188 -0.080581655 -0.07021422 -0.070017915 -0.07029522 -0.07501275 0.02822803 0.025673139999999997 -0.033173375 -0.03409742 -0.083103735 -0.08439652 -0.08509636500000001 -0.02532734 -0.073776855 -0.05798735 -0.05847081 -0.03597749 -0.06559201 -0.066658095 -0.06559232000000001 -0.06659809 -0.01996443 -0.08299081999999999 -0.08498345 -0.08280314999999999 -0.084016675 -0.085152225 -0.083977205 -0.0849786 -0.020143235 -0.038196675 -0.037320355 -0.034986395 -0.035126205 -0.07453932499999999 -0.07393717999999999 -0.077042815 -0.01930419 -0.036323545 -0.03849794 -0.07161129 -0.07224502 -0.07184028 -0.027355249999999998 0.03018001 0.03217882 0.03335106 -0.07385359999999999 -0.07357663 -0.084376855 -0.085782555 -0.08524381 -0.08501807 -0.08637936 -0.0727926 -0.0736212 -0.07426876 0.0523797 -0.022102835 -0.022834335 -0.030530395000000002 -0.032835865 -0.032148380000000004 -0.06474294 -0.062134035 -0.06311968500000001 -0.074068075 -0.077430485 -0.07758358500000001 -0.076156685 -0.07864291000000001 -0.08696984499999999 -0.08757644 -0.08255742499999999 -0.083144355 -0.080942525 -0.08024268 -0.04889646 -0.066356515 -0.065186995 -0.06490066 -0.05275386 -0.05199161 -0.055166 -0.022730255 -0.025926475 -0.02492671 -0.07198607 -0.07066544 -0.07185483 -0.07082664 -0.08297750500000001 -0.08157881 -0.082049805 -0.08386001 -0.08543658 -0.08541407 -0.065403895 -0.065781705 0.021874875000000002 0.02146325 0.023499615 -0.06613884 -0.06552851500000001 -0.065446185 -0.05003194 -0.04654802 -0.05208783 -0.053876005 -0.081593925 -0.081235905 -0.08309048 -0.07172292999999999 -0.07188412999999999 -0.07096243999999999 -0.086271385 -0.071041145 -0.072517305 -0.01809215 -0.07142978999999999 -0.07145909 -0.070581635 -0.07084547499999999 -0.069817285 -0.039337215 -0.08850791999999999 -0.08732063 -0.06865189499999999 -0.06773506 -0.039740935 -0.07906592 -0.08122713 -0.033194445 -0.03338625 -0.032683715 -0.08720286499999999 -0.08742860499999999 -0.08679787 -0.087506635 -0.08808302500000001 -0.06473346499999999 -0.06727675 -0.027312505 -0.02860554 -0.066765585 -0.06655952500000001 -0.076174255 -0.07651095 -0.06522186499999999 -0.06601204999999999 -0.065936835 -0.030026050000000002 -0.03218781 -0.06916123 -0.068576915 -0.08262952500000001 -0.08665875 -0.087898405 -0.087586795 -0.08727668499999999 -0.08730844 -0.087031285 -0.086054535 -0.029603905 -0.029106649999999998 -0.08241374500000001 -0.0894195 -0.02698121 -0.070376265 -0.070083125 -0.06807840500000001 -0.02884341 -0.058739990000000006 -0.05725851 -0.06460418500000001 -0.069104675 -0.07048064 -0.03439391 -0.034799905 -0.03066534 -0.00913988 -0.08610174000000001 -0.03885017 -0.064513295 -0.05159768 -0.055354324999999996 -0.07700285500000001 -0.034447635000000004 -0.033936905 -0.08445925 -0.086038305 -0.085391305 -0.08507969500000001 -0.08502578999999999 -0.084827595 -0.06456625499999999 -0.065825295 -0.026677255 -0.074921495 -0.073935695 -0.067204965 -0.06812686 -0.032775925 -0.08488264000000001 -0.08463724 -0.08453453 -0.025692140000000002 -0.039418980000000006 -0.041333430000000004 -0.07846531000000001 -0.04005573 -0.04095358 0.015018625 0.017537095 0.017320040000000002 -0.07948908 -0.020928620000000002 -0.037556925 -0.031403885 -0.054636295 -0.056599775000000005 -0.053559129999999996 -0.07964384 -0.07724644 -0.078054385 -0.06483937 -0.024485174999999998 0.005003225 0.00199341 -0.040268120000000004 -0.040433775000000005 -0.08367602 -0.08194103 -0.083208475 -0.081743975 -0.022810765 -0.04075234 -0.03935088 0.02125668 0.02358476 -0.0192727 -0.08717349499999999 -0.087708445 -0.065707115 -0.06668493 -0.068231235 -0.07781342499999999 -0.06005121 -0.05778305 -0.082380615 -0.082516845 -0.081898735 -0.083117835 -0.08208909 -0.081041665 -0.08275142499999999 -0.02204848 -0.027130825 -0.026478130000000002 -0.019788405000000002 -0.017978215 -0.01908094 -0.082352045 -0.052265755 -0.053466275 -0.084878135 -0.084073225 -0.08645470499999999 -0.08863006 -0.086907665 -0.084642515 -0.06395772499999999 -0.06550402999999999 -0.06308998 -0.061650545 -0.06450460999999999 -0.08112764 -0.082423045 -0.080551825 -0.08041535999999999 -0.081462785 -0.05307892 -0.07646916 -0.07742808 -0.0781678 -0.00299756 -0.00010253999999999992 -0.0003128199999999999 -0.076446875 -0.07507208 -0.077204115 -0.06564286999999999 -0.022173625 -0.081271205 -0.08011203 -0.0291415 -0.032439245000000005 -0.029866645 -0.006516565 -0.009411695000000001 -0.09168493 -0.09189319500000001 -0.04237924 -0.040499875000000005 -0.043651195000000004 -0.054144105 -0.05466794 -0.055678655 -0.055748595 -0.05467793 -0.05550073 -0.05689031 -0.027506535 -0.027525590000000003 -0.026101045 -0.081163245 -0.083104355 -0.081518495 -0.08092065000000001 -0.09045172 0.00793504 0.00803654 0.00638285 -0.08740996 -0.088050485 -0.08595241 -0.086874025 -0.06755502499999999 0.02776916 0.025656275 -0.06264324 -0.062440155 -0.061775495 -0.06164873 -0.06425763500000001 -0.07883105500000001 -0.07943320000000001 -0.0793394 -0.09050224500000001 -0.09070900500000001 -0.08994792 -0.088380985 -0.084106865 -0.08276333 -0.02642092 -0.031739005 -0.05127462 -0.048945775 -0.07714364500000001 -0.078885915 -0.065716145 -0.08036198 -1.030499999999995e-05 0.00135046 -0.07871671999999999 -0.08866363499999999 -0.09040215 -0.08901171999999999 -0.08969210999999999 -0.04895798 0.025024245 -0.03244811 -0.03400261 -0.03348289 -0.028082135 -0.027098650000000002 -0.027947595 -0.079124925 0.02909905 0.02698298 -0.061024419999999996 -0.088188215 -0.063580015 -0.062499155 0.019049995 0.01655982 0.019222795 -0.01035533 -0.007522030000000001 -0.00952111 -0.064307375 -0.06397642 -0.006592414999999999 -0.00723478 -0.008466365 -0.0037146799999999997 -0.00258194 0.0068620650000000005 0.00503764 0.005388535 0.00791454 0.00693938 0.00544033 -0.07573202500000001 0.05638023 0.054755824999999994 0.054680805 0.00890448 0.00872376 0.0071639600000000005 0.02648642 0.02408048 0.026317180000000003 -0.05210008 -0.05200903 -0.06890307500000001 -0.06933278 -0.0552912 -0.061102779999999995 -0.07272639 -0.071070315 -0.070499685 -0.07127417 -0.07322996500000001 -0.025486955 -0.02378574 -0.023744405 -0.07128857499999999 -0.075795815 -0.07469766 -0.069081585 -0.06969306 -0.068994115 -0.07350322000000001 -0.074277705 -0.07046852 -0.068732505 -0.069420495 -0.06803355999999999 -0.07063909 -0.077370115 -0.07557875 -0.075852005 -0.071812135 -0.07297904 -0.07402678 -0.07056599499999999 -0.07120437 -0.070418905 -0.077875375 -0.07809244000000001 -0.071253985 -0.07269153 -0.07217411 -0.073864575 -0.033348024999999996 -0.034274914999999996 -0.07612384 -0.077424885 -0.07814721 -0.078392225 -0.07884271500000001 -0.07212381000000001 -0.072026335 -0.07559966 -0.08998901000000001 -0.089477135 -0.07182724 -0.07168015 -0.07838248 -0.07768697499999999 -0.07558991500000001 -0.086980735 -0.07229699 -0.07277277 -0.073222305 -0.07235248 -0.0738875 -0.03474697 -0.07595189 0.006938315 0.0044641049999999995 -0.06416053 -0.07308397999999999 -0.07319369 -0.07910882999999999 -0.07889368 -0.07840358 -0.057674265 0.01227739 0.011173764999999999 0.010517215 -0.06004324 -0.063188815 -0.062976795 -0.072947965 -0.07194758500000001 -0.07236905 -0.07331458 -0.0731414 -0.031523275 -0.02945088 -0.031643015 0.02301435 0.02322777 0.02111132 0.01121992 0.008944174999999999 0.009690455 -0.010926825 -0.013760125 -0.009447645000000001 -0.01246587 -0.027813894999999998 -0.026330215 -0.02760378 -0.030033115 -0.02900927 -0.029954925 -0.03110224 -0.030078395 -0.03019512 -0.029047805000000003 -0.073982095 -0.0781275 -0.07885385 0.035885020000000004 0.034291305 0.033149145000000005 -0.027610505 -0.028884069999999998 -0.03013574 -0.031081394999999998 -0.02459004 -0.02553927 -0.02675914 -0.02994929 -0.03097988 -0.07665896 -0.07493362 -0.07459457 -0.07839755500000001 0.009377745 0.009018165 0.00677507 0.00838946 0.008804815 0.006687665 -0.030754445 -0.029706165 -0.029502775000000002 -0.032197489999999995 -0.032094865 -0.03290076 -0.032218335 -0.031908135 -0.02913308 -0.02986116 -0.028436450000000002 -0.03064592 -0.07860925 -0.07842903500000001 0.010927309999999999 0.008810160000000001 0.0019986049999999997 0.001039015 -0.00142542 -0.026935664999999998 -0.025992975 -0.02748302 -0.03323482 -0.03292462 -0.031662305 -0.022499039999999998 -0.07710923 -0.092155055 -0.09145196 -0.091891875 0.006627775 0.009165625 -0.02937529 -0.028432600000000002 -0.031574174999999996 -0.089219395 -0.07493543999999999 -0.07388932000000001 -0.07356317500000001 0.0019996700000000003 -0.027291555 -0.026977 -0.028740265 -0.031465745 -0.031895320000000005 -0.028169425 -0.026744715000000002 -0.076920505 -0.078389045 -0.078420525 -0.08946021500000001 -0.089397 -0.08954405500000001 -0.07296883 0.0035761549999999997 0.00279962 0.00010346500000000001 -0.028300365 -0.0265371 -0.029746315000000002 -0.030695895 -0.03290879 -0.073808415 -0.043340915 -0.044874365 -0.04399943 -0.042378865 -0.043256375 -0.04141939 -0.04263367 -0.040796685 -0.039600875 -0.03934607 -0.08396113 -0.081625065 -0.028596515 -0.029350969999999997 -0.03006087 -0.033983295 -0.033649235 -0.032424215 -0.080197715 -0.08269605999999999 -0.07802512 -0.083252665 -0.03183677 -0.033554615 -0.033856785 -0.03434057 -0.03436443 -0.035089045 -0.04719603 -0.044772645 -0.046216595 -0.07584105999999999 -0.077120875 -0.077804915 -0.03376787 -0.032280605 -0.028277745 -0.0060982250000000005 -0.0063691 0.00423596 0.0002890200000000001 0.0013027500000000003 -0.074513995 -0.075385265 -0.075247665 0.010343025 0.008312265 0.01144233 -0.00551592 -0.004284335 -0.04302226000000001 -0.04460444 -0.043571755000000004 -0.041600985 -0.030071479999999998 -0.032661934999999996 -0.031600035 -0.02932835 -0.03035702 -0.033311400000000005 -0.034259395 -0.032740794999999996 -0.033062234999999995 -0.09337139 -0.0925471 -0.09303749 -0.072701425 -0.07339475 -0.074798535 -0.07586124 -0.075191125 -0.07459567 -0.07418447 -0.074606245 -0.045262955 -0.03254155 -0.07415539 -0.07536442 -0.07495322 -0.07513581 -0.017268715 -0.018774025 -0.01991099 -0.064179065 -0.045997745 -0.04572782 -0.01103308 -0.010097415 -0.015781865 -0.03580347 -0.032022145 -0.033496775 -0.03488299 -0.075511865 -0.07662408 -0.077703525 -0.02053251 -0.022357565 -0.019591245 -0.02391938 -0.022978115 -0.04309089 -0.044512165000000006 -0.029640510000000002 -0.03070241 -0.029909485 -0.030228255 -0.05374893 -0.055198865 -0.058260595 -0.054859785 -0.07751432999999999 -0.07792536 -0.07778929000000001 -0.077428565 -0.045246955000000005 -0.04247427 -0.030540415 -0.03463961 -0.076094515 -0.09205144500000001 -0.09132895 -0.031707570000000004 -0.031126435 -0.031836335 0.030507819999999998 0.02891293 0.03031801 -0.028006565 -0.02979205 -0.08976175 -0.08922980999999999 -0.091781445 -0.07414464 -0.075263885 -0.044608905000000004 -0.04582456 -0.030780485000000003 -0.03104946 0.026303855 0.023201529999999998 0.023563845 -0.043257315000000005 -0.04383631 -0.046333275 -0.075955095 -0.07484521499999999 -0.07318148 -0.08254323499999999 -0.08452719 -0.075616215 -0.07567275500000001 -0.075175935 -0.0704219 -0.04733167 -0.047067685 -0.046726594999999996 -0.046088544999999995 -0.043051875 -0.030827285000000003 -0.031258255 -0.03133633 0.005737235 0.005321879999999999 -0.011755080000000001 -0.012744615 -0.014088525000000001 -0.05318871 -0.05109725 -0.054913095 -0.07631723 -0.075205015 -0.079238795 -0.028724955 -0.03194764 0.027494184999999997 0.02599267 0.026820684999999997 0.052740715 0.021087245 0.02418957 -0.056899325 -0.07598277 -0.07687226999999999 -0.077094105 -0.0334729 -0.032129325 -0.03193752 -0.03189072 0.024784445 0.02351607 0.022981345 -0.075119425 -0.07360422999999999 -0.07546056500000001 -0.036587825000000004 -0.03374442 -0.014569184999999998 -0.018135955 -0.013657639999999999 -0.072748825 -0.07371660499999999 -0.090829535 -0.09046321 -0.042548745 -0.029333995 -0.028023605 -0.02460922 -0.046133305 -0.047035339999999995 -0.04420667 -0.08956882 0.012571205 0.00944114 0.00314985 0.001581035 0.000757415 -0.07554566 -0.076199555 -0.07695803500000001 -0.01467601 -0.014151865 -0.07890706 -0.076908625 -0.07804513499999999 -0.077399125 -0.07939756 -0.064879525 -0.064954925 -0.03096391 -0.028771775 -0.07361418 -0.071753015 -0.07673036 -0.077150585 0.01199434 0.00976616 -0.07834975 -0.077373155 -0.07874714499999999 -0.08008325 -0.077197355 -0.078529055 0.03070177 0.028712469999999997 0.03109204 -0.08854838 -0.07589036 -0.07564533500000001 -0.076200375 -0.010695570000000001 -0.01269465 -0.080385915 -0.079249405 -0.080602795 -0.028352025000000003 -0.031682595 -0.02949114 -0.0867324 -0.07454985 -0.076172135 -0.076392925 -0.033211215 -0.038972145 -0.041440695 -0.03661963 -0.036134139999999995 -0.03683549 -0.03344973 -0.023984199999999997 -0.023176815 -0.025761515 -0.08907282 0.00941258 0.01144334 0.014660655 0.016485745 0.014922079999999999 -0.01812285 -0.015825 -0.019101649999999998 -0.08084718 -0.08149319 0.016093585 0.014367044999999998 0.01466048 -0.073628585 -0.07556006500000001 -0.08847756500000001 -0.076673405 -0.08780005 0.03206524 0.03287515 0.02087529 0.01791186 0.0197106 -0.030464055 -0.033215555 -0.08022599999999999 -0.08217888000000001 0.052981404999999995 0.050931165 0.05085617 -0.022724775000000003 -0.02791553 -0.01059855 -0.00872753 -0.076498915 -0.0770289 -0.00024147000000000014 -0.001955725 0.0008897749999999999 0.0090518 -0.025047415 -0.027733185 -0.02456819 -0.080007105 -0.07950484499999999 -0.0820004 -0.08165805500000001 -0.083107675 -0.0206081 -0.021640185 -0.019735145 -0.02059403 -0.022741305 -0.01674326 -0.020960435 -0.019383015 -0.01788492 -0.018564905 -0.00975549 -0.007255050000000001 0.004013575 0.0072949899999999995 0.009538085 -0.005811975 -0.009313925 -0.00873249 -0.011071810000000001 -0.05536056 -0.05415016 -0.05334642 -0.05487022 -0.073486545 -0.07626016 -0.08103117 -0.081752325 -0.02098775 -0.018094835 -0.014662405 -0.015002645 0.002656675 -0.072526015 -0.07523406 -0.073121275 -0.07601360500000001 -0.07693487 -0.07680811 -0.058364555 -0.058576575 -0.07909741 -0.07845239 -0.07993096999999999 -0.08256522 -0.08082 -0.083024465 -0.083953855 -0.08411872000000001 -0.083554825 -0.082790895 -0.08197874 -0.07850523000000001 -0.08037489 -0.07792098 0.040217964999999994 -0.028334115 -0.00382849 -0.001103485 -0.076608865 -0.077061115 -0.076779395 -0.04618661 -0.05770689 -0.059385574999999996 -0.004536409999999999 -0.004730545 -0.006881945 -0.069503675 -0.069525225 -0.07205005 -0.073464995 -0.08146502 -0.083870645 -0.08456587 -0.081450035 -0.083638135 -0.078628815 -0.081082725 -0.021858830000000003 -0.020859065000000003 -0.01943633 -0.023281910000000003 -0.004605025 -0.07798366000000001 -0.07780682 -0.07735328 -0.07768006 -0.048609995 -0.04985071 -0.049880695 -0.061748655 -0.06468220999999999 -0.055972524999999995 -0.055659305 -0.054733939999999995 -0.056582795000000005 -0.055910925 -0.05681976 -0.06951745 -0.066992625 -0.076981345 -0.078340015 -0.07981859499999999 -0.083698105 -0.083909275 -0.08500353 -0.084889935 -0.085288965 -0.082034285 0.014192265 -0.079673415 -0.080253635 -0.07915913 -0.079078165 -0.077606285 -0.05783431 -0.058506180000000005 0.035472085 -0.032541719999999996 -0.019406145 -0.021522819999999998 -0.08574849500000001 -0.085709865 -0.08569529000000001 -0.085371225 -0.08471833000000001 -0.08418962499999999 -0.084379765 -0.08329956999999999 -0.08222442499999999 -0.00957956 -0.01362444 -0.01112096 -0.03257085 -0.08175019 -0.07949657500000001 -0.05258915 -0.051348435 -0.067682245 -0.069813685 -0.06825381 -0.06827864 -0.066718765 -0.06527860499999999 -0.06087897 -0.056285925 -0.082233365 -0.083122395 -0.085441425 -0.08765249 -0.08643626 -0.08684834 -0.087253765 -0.086037535 0.0273231 0.02800019 0.029468229999999998 -0.08019523 -0.07914581500000001 -0.08041716 -0.054058905000000004 -0.055526645 -0.070224335 -0.0707959 -0.056371660000000004 -0.056983624999999996 -0.08056235 -0.081319745 -0.08297712 -0.08446645 -0.08611619 -0.08371672 -0.081838955 -0.08434936500000001 -0.08485600500000001 -0.08673377 -0.08840918 -0.08882126 -0.08544378 -0.085244955 0.032028265 0.029648695 -0.081612875 -0.081963635 -0.07852687 -0.053297535 -0.056235030000000005 -0.052026835 -0.053644460000000005 -0.050197635000000004 -0.069439685 -0.08937571999999999 -0.07536771 -0.068476205 -0.057144495000000003 -0.056446795 -0.057355630000000005 -0.07851359 -0.078114795 -0.079459995 -0.07603494 -0.080961145 -0.08290199000000001 -0.08652136499999999 -0.08686000499999999 -0.086602025 -0.086519765 -0.08616802000000001 -0.08263665 -0.082760235 -0.08800132499999999 -0.08881212999999999 -0.086742185 -0.08629398499999999 -0.084298705 -0.07793172500000001 -0.07947125499999999 -0.057266655 -0.058075655000000004 -0.085270645 -0.081639185 0.02610154 0.024264545 0.024511025 -0.06639397999999999 -0.064357425 -0.061994345 -0.03524467 -0.08179963500000001 -0.086566805 -0.08727314 -0.086871655 -0.05649714 -0.0581145 -0.03626028 -0.034579769999999996 -0.074715925 -0.0856113 -0.088719975 0.010220835 0.0074446749999999996 0.01032083 0.012412264999999999 0.009636104999999999 0.02859814 0.029426155 0.02288101 0.02108227 -0.006700085 -0.008047005 -0.0057291600000000005 -0.06403426 -0.018968455 -0.024593425 -0.02394565 -0.030707365 -0.03022814 -0.00212918 -0.024575615000000002 -0.021208835 0.028388629999999998 0.02578094 0.02387828 0.023717679999999998 -0.06196433 -0.062894065 -0.037553865 -0.01361652 0.01945753 0.040736949999999994 0.042357985 -0.06931954500000001 0.02201063 0.020107970000000003 0.01522313 0.01339804 0.025939564999999998 0.024471525 -0.014727605 -0.01473611 -0.016961894999999998 0.043875335 0.045014265 0.015843135 0.015188885000000001 0.037837665 0.03923303 0.04324461 0.042711415 0.036695505 0.03505085 0.037003495 0.0038941949999999996 0.0012126149999999998 0.00129189 0.025133285 0.02107726 0.019808885 0.0216333 0.01819489 0.02081131 -0.020308355 -0.025285549999999997 -0.0060992749999999995 0.017100535 0.015937005 0.01463662 0.019449175 0.026285959999999997 0.02667623 0.018807585 0.030682914999999998 0.028235825 0.030173285 0.02732171 0.02145519 0.021285949999999998 0.01731871 0.004974355 0.0032601 0.017156115 0.015991425 -0.03435339 -0.034473375 -0.036005054999999994 0.04508898 0.04392506 0.044202355 -0.065320485 0.03424435 -0.034156584999999996 -0.035805355 -0.051376569999999996 -0.039235855 -0.0038027499999999997 0.018130834999999998 0.02113827 0.019249585 0.032497120000000004 0.033660129999999996 -0.053063275 -0.052868794999999996 0.03554803 0.033962820000000005 0.027733335 0.035136115 0.032027785 0.03218059 -0.00685854 -0.012716459999999999 -0.0027038699999999997 0.00019115000000000017 0.014467385 0.04588338 0.04520293 0.001391235 0.0459517 0.044384625 0.03075265 -0.03279522 -0.03505897 -0.017280564999999998 -0.01792834 -0.019426409999999998 -0.019417905 0.05218344 0.002864765 0.056082085000000004 0.01842427 0.045808665 0.017458335 0.019079395 0.01509415 -0.027779015 -0.031159 0.05383697 -0.064218845 -0.063938885 -0.003780365 0.04728768 0.04740163 -0.016376855 0.057414190000000004 -0.06337699999999999 -0.062555455 -0.061553775 -0.062115659999999996 -0.061994905 -0.063378335 0.010521885 0.01260687 -0.032499715 -0.034987835 -0.030186989999999997 -0.03274657 -0.05119568 -0.055707345 -0.02183678 -0.02452255 -0.036003364999999996 -0.002036625 -0.00428058 -0.004443855 -0.071052745 -0.070331435 -0.06079878 -0.060290325 -0.06073012 -0.060731455000000004 0.003360095 -0.00841158 -0.05905519 -0.057847255 -0.059906045 -0.05908239 -0.05986013 -0.029691605 -0.028014900000000002 0.01400393 0.01417673 -0.034272975 -0.0563775 -0.058872759999999996 -0.058234364999999996 -0.023206104999999998 -0.02578615 -0.023580524999999998 -0.02696132 -0.024381275 -0.00997338 -0.01057419 -0.00841712 0.036830445 0.035941360000000006 -0.033794485 -0.03432297 -0.004516495000000001 -0.00930984 -0.005617825000000001 -0.005278075 0.038510195 0.041736565 -0.058229465 -0.058622925000000006 -0.0566037 -0.003656365 -0.001730175 -0.00471347 -0.014971139999999999 -0.014185449999999999 -0.015225565 -0.064749535 0.047255000000000005 -0.012106744999999999 -0.010550485 -0.017279135 0.03316731 0.03633836 -0.026585405 -0.02760469 -0.0259063 -0.01593558 -0.01679821 0.003631835 0.004493695 0.003991415 -0.05619717 -0.058854790000000004 -0.059213194999999996 -0.056537605 -0.04897756 -0.047842894999999996 -0.046724785 0.054605810000000005 0.00100889 -0.000559925 -0.016925115 -0.01739238 0.05112393 0.048067395 0.047885125 0.053395794999999996 -0.012673975 -0.02029729 -0.021538435 -0.018465555 -0.05834971 -0.061012485000000005 -0.055492650000000004 -0.056729854999999996 -0.054688995000000004 -0.05528373 -0.053793525 -0.028666345 -0.03069278 -0.031597055 0.01576736 0.013025665 0.016275185 -0.025190015000000003 0.0058379999999999994 0.0069373049999999995 -0.056858745 -0.055081115 -0.052952294999999996 -0.056220889999999996 -0.053946275 -0.05638648 -0.058018315 -0.06029293 0.0384751 -0.03636945 -0.036053785 -0.018225935 0.019922250000000002 -0.01006404 -0.01406323 -0.01084701 0.01846084 -0.023327960000000002 -0.016151235 0.0003800600000000001 0.00083578 -0.01520186 -0.03406169 -0.053256265 -0.055642134999999995 -0.05451014 -0.053682469999999996 -0.053668585000000005 -0.056558195 -0.051458565 -0.05433429 -0.052191505 -0.03600443 -0.03778524 -0.02454783 0.012081685 0.0486593 -0.05246382 -0.049760725000000006 -0.051685165000000005 -0.05055317 -0.052742475 -0.05111064 -0.034219095 0.033925670000000005 0.033457135 0.030850375 0.030139275 -0.04943128 -0.050829925 -0.05019207 -0.05228125 -0.049445615 0.050784535 -0.026465665 -0.048825235 -0.050029035 -0.04882741 -0.04891472 -0.048136065000000006 -0.04641312 -0.048698525 -0.04842192 -0.04954003 -0.011643285 -0.04797685 -0.047720765 -0.049887465000000006 -0.04862616 -0.04726458 -0.046576155 -0.013150075 -0.012768355 -0.04730212 -0.046220515000000004 0.054382685 -0.015205075 -0.045896955 -0.04715826 -0.046840895 -0.04430376 -0.045108880000000004 -0.043615335000000005 -0.044890005 -0.045721945 -0.04357845 -0.02082609 -0.043534975000000004 -0.04409748 -0.0417086 -0.04407058 -0.04191488 -0.045159475 -0.04402481 -0.073983045 -0.074809925 -0.054761745 -0.057498560000000004 0.023531959999999998 0.003194325 0.000803275 0.002829595 -0.0001735799999999999 -0.04247454 -0.042667145000000004 0.012291050000000001 0.014961559999999999 0.01401795 0.032687685 -0.040995425 -0.042462700000000006 -0.040047235 -0.04135559 -0.033669450000000004 -0.03995369 -0.04018687 0.012020050000000001 0.010318255 0.050003655 0.051565280000000005 0.015453195 0.01521132 0.01801678 0.032250324999999996 0.012093975 -0.035678715 -0.03597422 -0.03029189 -0.0332226 0.00869991 0.013338555 -0.03475428 -0.02209498 -0.02340537 -0.020992255 0.004654035 -0.06478305000000001 -0.039034235 -0.039838874999999996 -0.038734964999999996 -0.03731064 -0.039931264999999994 -0.041496574999999994 -0.037695345 -0.041788889999999995 -0.018620465 -0.04242013 0.02592683 0.027247840000000002 0.025027010000000002 -0.038518585 -0.039980589999999996 -0.037863930000000004 -0.037055375 -0.03717536 -0.038068375 -0.036937584999999995 -0.03542087 -0.05712597 0.04933792 -0.05289614 -0.036763674999999996 -0.03555922 -0.035466830000000005 -0.03678147 -0.035523694999999994 -0.035851535000000004 -0.01694897 -0.01579161 0.019965160000000003 0.023190015 0.01265409 0.01307479 -0.076127995 -0.075367565 -0.069528505 -0.06760387500000001 -0.07199834 -0.073461805 -0.071314585 -0.07653844500000001 -0.07911594 -0.06536602 -0.0616226 -0.06420194 -0.069431285 -0.066851945 -0.07651395 -0.07761680500000001 -0.074893255 -0.03451963 -0.079286145 -0.07656259500000001 -0.07730371999999999 -0.074531525 0.051721100000000006 -0.07608137 -0.07811244 0.04879059 0.05034938 0.04894641 -0.053732455 -0.051210415 -0.05261771 -0.07831472 -0.075602465 -0.07702709499999999 0.046023930000000005 0.04723983 0.044402214999999995 0.047168875 -0.05258595 0.0448075 0.046995655 0.045623935000000004 -0.050394585 -0.04981545 0.02329593 0.02468037 -0.07058895500000001 -0.070930095 -0.0417622 -0.042007465 -0.068678085 -0.02368176 -0.021340775 -0.019058514999999998 0.044073175 -0.026657590000000002 -0.062197064999999996 -0.06315602000000001 -0.060000965 -0.06700046500000001 -0.06704452 -0.06443660500000001 -0.05219965 -0.05479367 -0.05293643 -0.07223448 -0.07194987 -0.06989299 -0.07083998999999999 0.04281768 0.038292215000000004 0.04168336 0.040282035 0.04348327 0.045232615000000004 -0.068293615 -0.073777225 -0.071720345 -0.05917877 -0.056493255 -0.057825265 -0.056522845 -0.056927665 -0.05863719 -0.05206207 -0.05535893 -0.085471305 0.037777290000000005 0.041168435 0.04156843 0.038563545000000005 0.041497475 0.041397329999999996 -0.02626646 -0.055410635 -0.057906084999999996 -0.072364035 -0.07142513 -0.06399139000000001 -0.06278242 -0.010429444999999999 0.04054934 -0.07293389 -0.073333995 -0.070995235 -0.07374261 -0.071370685 -0.074518165 -0.079233855 -0.07974858500000001 -0.07651084 -0.06332452499999999 -0.061770865 -0.06449031499999999 -0.062502575 -0.06455470499999999 -0.06139965 -0.07059059000000001 -0.072331345 0.037521705 -0.07999295000000001 -0.0787706 -0.06904621 -0.04953053 -0.060232595 -0.058814290000000005 0.035522895 0.034121570000000004 -0.07325125499999999 -0.07280051 -0.040823105 -0.042030195000000006 -0.058444385 -0.05715368 -0.056556054999999994 -0.055039334999999995 -0.05640436 -0.054694835 -0.058990139999999996 -0.056420990000000004 -0.057971285 -0.056126645 -0.058248999999999995 -0.04136225 -0.04171905 -0.054387124999999995 -0.055107185 -0.055071195 -0.05331043 0.035259145000000006 0.036145545 0.035934654999999996 0.033416509999999996 -0.01414201 -0.0565277 -0.06659177499999999 -0.06686489000000001 -0.016367794999999997 -0.052827715 -0.051780575 -0.053626065 -0.06869792999999999 -0.065875495 -0.066658605 -0.0053056399999999995 -0.007108735 -0.004590375 -0.04998512 -0.052005300000000004 0.0332067 -0.04922466 -0.04585714 -0.04895764 -0.05308525 -0.05112177 -0.07276387 -0.07149274 -0.07477557 0.03017129 0.03294061 0.031308865000000005 -0.05711428 -0.055294235 -0.052856875 0.03043794 0.031097975 -0.07135291 -0.07394893 -0.0734342 -0.05517636 -0.042402095 -0.044992489999999996 -0.041751435 -0.056049840000000004 -0.05283398 -0.07585796 -0.07499603499999999 -0.049796315 -0.046904475 -0.04775605 -0.046587935 -0.04845109 -0.046094285 -0.076788655 -0.07627452 -0.065429355 -0.06541558 -0.04180562 -0.08138066499999999 -0.04613135 -0.047712085 -0.044890495 -0.057126535 -0.060115644999999995 -0.059136999999999995 0.028539290000000002 0.02824667 -0.047550880000000004 -0.04582933 -0.04672995 -0.03858942 -0.03836505 -0.071713205 -0.057710634999999996 -0.059172475 0.022792914999999997 -0.04703182 -0.04459504 -0.04759815 -0.04799278 -0.04524852 -0.07035333 -0.06715352 0.0284046 0.02722364 -0.050538929999999996 -0.051223000000000005 -0.046155724999999995 -0.04429257 -0.05078965 -0.050329385000000004 0.015306324999999999 0.01499924 -0.004923820000000001 -0.002585785 -0.07259287 0.02566894 -0.041904355000000004 0.024589465 -0.062982645 -0.061799709999999994 -0.0529462 -0.05297644 0.02391137 0.024576905000000003 0.022905225 0.02378869 -0.046341395 -0.043947995000000004 -0.04851756 -0.06779211 -0.06680646 -0.06789374000000001 -0.06676235 0.022423445 0.023529965 0.022874325 0.023038915 0.024152465 0.005020355 -0.04390366 -0.04822076 -0.067512745 -0.06716366500000001 -0.0478016 -0.04498001 -0.046860009999999994 -0.045058295 0.022268165 0.022468225 0.02070473 0.021505505 -0.067285075 -0.065001215 0.02184125 0.019702274999999998 0.020128479999999997 0.022112174999999998 0.021156244999999997 0.020930195 0.021383109999999997 0.01956952 0.021176195000000002 0.021225325000000003 0.02086155 0.018688365 0.019931265 0.016738905 0.01891209 0.01751237 -0.04415908 -0.043185375 -0.041336780000000004 -0.04710704 -0.04538549 -0.060978745 -0.06298920999999999 -0.05508596 -0.058044445 -0.059182395 0.017399215000000003 0.01798141 0.01872515 0.017315345 0.017764665 -0.07246089 -0.04737643 -0.04888365 -0.049491469999999996 -0.068510065 -0.066378625 -0.059596145 -0.059612775 0.018563305 0.018407315 0.01959107 0.01597622 -0.043610930000000006 -0.044971525 -0.04203559 -0.042142905 -0.022193085 -0.019936295 0.017019725 0.017068855 0.015626050000000002 0.01741869 0.02943911 -0.0464282 -0.043562464999999995 -0.041460264999999996 -0.04366038 -0.04454767 -0.05006248 -0.04820447 -0.08845868500000001 -0.08703219000000001 -0.06083747 0.016260245 -0.042956095 -0.042894655000000004 0.013661955 0.01560841 0.01818643 0.01654206 0.014821195 0.01481468 0.016138569999999998 0.014239215 0.01577956 0.013975930000000001 0.048070230000000005 -0.078130855 -0.000858675 -0.002001915 -0.00255214 -0.044285530000000004 -0.061191045 -0.06110759 -0.070306335 -0.07034083 0.013670085 0.01452724 0.013194695 0.013776589999999998 0.012910669999999999 0.01355321 0.013646890000000002 -0.043193999999999996 0.012684544999999998 0.011873255 0.012995195000000001 0.01339712 0.01501663 0.013997455 0.01311429 0.015000610000000001 0.01147516 0.011990825 -0.040744745 -0.043836435 -0.06323305 -0.053088155 -0.05161806 -0.053795255 -0.011379130000000001 -0.016770254999999998 0.011998765 0.01230085 0.011066340000000001 0.010772384999999999 0.01176296 0.01291407 0.01051171 0.01271134 0.01136867 0.011073050000000001 0.009403149999999999 0.009159215 0.010430415 0.008969709999999999 0.00868416 0.01213017 0.010606305 0.011924615 0.01113513 -0.04205591 -0.05102526 -0.05286214 0.00927097 0.007909865 0.008014695 0.00887972 -0.049904485 0.004108425 0.008592395 0.008875899999999999 0.006675355 0.00844892 0.00585731 0.00596228 0.008850845 0.009386615000000001 0.007624175 0.00903605 0.010162175 0.009723255 0.009014845 0.009793795000000001 0.009530509999999999 -0.0448209 -0.043506210000000003 -0.04302241 -0.064511245 -0.046975699999999995 -0.039614369999999996 0.00715797 0.008444645 0.011231165000000001 -0.084474735 -0.08494573 0.00918925 0.007097815 0.008046695 0.00832732 0.00785493 0.00651226 0.008175950000000001 0.009148904999999999 0.00746754 0.00699222 -0.04441274 -0.040570275 0.00981043 -0.07323054 -0.073280185 -0.06413511499999999 -0.06209579 -0.07038642 0.004787 0.00705612 0.006388885 0.008772605 0.008573275 0.005659725 0.00678585 0.00488582 0.00685027 0.00627592 -0.046989005 -0.045153465000000004 -0.06832289999999999 0.006263345 0.0034768250000000002 0.006276475 0.005163955 0.0069575750000000006 0.00687547 0.0056308899999999995 -0.048047245 -0.06973749500000001 0.0040576 0.004837245 0.00567054 0.006115825 0.0043538249999999995 0.005468605 0.003402615 0.004728295 0.004594235 0.013924645 -0.048702220000000004 0.00479914 0.00309241 0.00362818 0.002789855 0.0045735 0.00491476 0.0021755150000000003 0.00184919 -0.050209565 -0.054155234999999996 -0.06806661 0.00250885 0.0036152050000000002 0.00093983 0.003268225 0.0013676600000000001 0.004043035 0.003769975 0.00272632 -0.04833506 -0.059318430000000005 0.0024768950000000002 0.003970179999999999 0.002078015 0.002306415 0.002370835 0.00082321 0.0017107 -0.000595595 0.00138399 0.00047989500000000004 0.001063745 -0.00102441 0.002552715 0.002710985 0.0022801849999999997 -0.0003834400000000001 -9.993500000000021e-05 -0.0013331250000000001 0.0010137750000000002 -0.000208265 -0.000294915 -0.0007472750000000002 0.00128427 -0.000317835 0.000713945 -0.046580695 0.0007920849999999999 -0.05793901 -0.002719625 -0.0015114500000000001 -0.0057198100000000005 0.0005090450000000001 -0.0026372799999999997 -0.001825055 -0.001230715 -0.000469805 -0.0007903300000000001 -0.05672016 -0.00626934 -0.0017774750000000001 -0.0013824049999999997 -0.00267574 -0.001180665 -0.0015276449999999998 -0.0024154099999999998 -0.002309365 -0.0024186299999999997 -0.0019313750000000001 -0.00408758 -0.004440365 -0.003207635 -0.0037981000000000004 -0.002775955 -0.00487675 -0.003922905 -0.08406931000000001 -0.047863365000000005 -0.00258337 -0.004088955 -0.03054626 -0.02757208 -0.084667155 -0.008027860000000001 -0.004168560000000001 -0.004535875 -0.00524902 -0.00622142 -0.005683965 -0.0036590100000000003 -0.0035007400000000004 -0.005166735 -0.004818175 -0.006363415000000001 0.017903185000000002 0.01842291 -0.00576688 -0.01559978 -0.019687545 -0.008179740000000001 -0.0046067750000000005 -0.00852267 -0.00497699 -0.008487225000000001 -0.0059139449999999994 -0.00733087 -0.00469627 -0.00646741 -0.00653635 -0.007328575 -0.00665427 -0.0063963 -0.0068835549999999995 -0.06583189 -0.00939167 -0.0071258649999999995 -0.010014075 -0.007217065 -0.00766844 -0.00799135 -0.006971275 -0.006504685 -0.01016291 -0.047859935 -0.06942794 -0.06863341 -0.008863969999999999 -0.009532515 -0.0072257250000000006 -0.00823184 -0.010270310000000001 -0.00896106 -0.008692740000000001 -0.067281415 -0.060802024999999996 -0.008936030000000001 -0.01061357 -0.00931305 -0.012366775 -0.011057525 -0.011665385 -0.00990161 -0.007807085 -0.01028048 -0.065729755 -0.064166485 -0.048337245 -0.010966759999999999 -0.01217868 -0.01075988 -0.01042231 -0.012967784999999999 -0.01433587 -0.047167305 -0.04670244 -0.05905431 -0.01087139 -0.01188729 -0.01161897 -0.026189285 -0.026794485 -0.060129375 -0.013047395 -0.017533925 -0.04238144 -0.012781299999999999 -0.013054205 -0.014173539999999998 -0.01229889 -0.015042030000000001 -0.01237534 -0.012654665 -0.012735645 -0.011999525 -0.011928625000000002 -0.016555430000000003 -0.012271555 -0.011274235 -0.011460905 -0.013392564999999999 -0.011496655 -0.01301413 -0.0534465 -0.024840670000000002 -0.0287826 -0.0299231 -0.017083125 -0.01385143 -0.01250277 -0.014627385 -0.013010405 -0.01537519 -0.015294954999999999 -0.01353118 -0.06320898999999999 -0.06146861 -0.06539712 -0.06567260999999999 -0.06642249 -0.012931555 -0.038120905 -0.012989525000000002 -0.016466380000000003 -0.01546906 -0.013035995 -0.015282825 -0.01456505 -0.015639395 -0.0153413 -0.059016175000000004 -0.070899985 -0.01491144 -0.07171792 -0.07142963 0.03924395 0.036965405 0.037326255 -0.067196715 -0.016221489999999998 -0.01560601 -0.016997445 -0.067068745 0.0066985199999999995 0.0094889 0.006758159999999999 -0.016048405 -0.016530815 -0.018243250000000003 -0.01652796 -0.018057015000000003 -0.016103134999999998 -0.017857715 -0.016663165 -0.017180215 -0.066031425 -0.01978427 -0.017909405 -0.01727562 -0.01980125 -0.017962335000000003 -0.061151645 -0.06354603 -0.061958735 -0.062712965 -0.02067267 -0.019613770000000003 -0.019100705000000003 -0.01812208 -0.01661682 -0.06677414 -0.008453605 -0.06556822500000001 -0.018474625 -0.019281645 -0.019192595 -0.019361615 -0.019825355 -0.01994371 -0.01747845 -0.01936371 -0.025921285000000002 -0.07087439 -0.069447255 -0.071112595 0.031206695 -0.077721645 -0.021432355 -0.021637379999999998 -0.020285865 -0.02111485 -0.021394175 -0.021622015 -0.02060675 -0.06607619 -0.063047275 -0.02128958 -0.020878965 -0.021889560000000002 -0.023808755 -0.02247367 -0.02050603 -0.021712725000000002 -0.02058809 -0.02311805 -0.023190805000000002 -0.02170342 -0.02084179 -0.02214096 -0.06473582 -0.062611715 -0.02197727 -0.022760580000000002 -0.023625145 -0.023364564999999997 -0.023678485 -0.02422584 -0.024015725 -0.024578045 -0.0635218 -0.02581011 -0.023502955 -0.025526439999999997 -0.024379949999999997 -0.080259735 -0.08159003000000001 -0.05893988 -0.05785678 -0.02455899 -0.024641049999999998 -0.025072805 -0.024032265 -0.02512493 -0.06403634999999999 -0.06375906 -0.01688762 -0.024177255 -0.02413816 -0.02426488 -0.02521665 0.008931395 0.00566056 -0.025207345 0.014885845 0.01375984 0.014322985 0.011988885 0.01086288 -0.0021236150000000006 0.010376475 0.01383658 0.0073190500000000006 0.00826266 0.004033215 0.00444249 0.003558505 -0.020482725 -0.02334456 -0.025795795 0.02187635 0.01949495 0.047226069999999995 0.04379779 0.000146015 -0.001253895 0.00030247 0.00301901 0.002033185 0.001902965 0.043068905000000005 0.041063035 0.03925548 -0.00024588 -0.001409625 -0.00024660500000000006 -0.030077769999999997 -0.01303141 -0.0099652 -0.008664485 -0.00673034 0.023091825 0.022715275 0.0116422 0.0093081 -0.005657125 -0.0030049250000000003 -0.00547839 0.020710425 0.02200599 0.018785665 0.013238090000000001 -0.07577679 -0.06467943000000001 -0.064754645 -0.061469895 -0.0622727 0.04201006 0.043199185 0.040072225 -0.070339225 -0.070207085 -0.022177295 -0.027490365 -0.07149026 0.005453755 0.0073646549999999995 0.026806075 0.029472785 0.027494909999999997 0.024441965 0.024530774999999998 0.02369185 -0.00633085 -0.008804315 0.01776511 0.017201965 -0.006270690000000001 -0.005808515 -0.008968705 0.00953412 0.01178142 0.0039029950000000002 0.01079014 0.01083125 -0.010459224999999999 0.00923536 -0.009648795 -0.012300995 -0.002552865 -0.00239641 -0.081879125 -0.08452369500000001 -0.08258506 -0.055948874999999995 -0.05732686 0.022538935 0.0200583 0.018844105 0.0040798 -0.028344725 -0.09017929999999999 -0.089639195 -0.09000827 0.014331759999999999 0.01594417 0.016563904999999997 0.014456314999999999 0.011785805 0.008139645000000001 0.004111254999999999 0.00857801 -0.001870815 -0.0031697849999999996 -0.011718514999999999 0.005093594999999999 -0.090347305 -0.090084125 0.0311141 0.030727865 0.02905382 0.02668971 0.026089685 0.008692475 0.009544535 0.025919039999999997 0.023760105 0.021835345 0.01832377 -0.088903615 -0.09076888 -0.08940104500000001 0.01728861 0.01960473 0.01778379 0.018165795 0.040589824999999996 -0.035201965 -0.00225339 -0.008427775 -0.00590684 -0.002250095 -0.006767245 -0.087108045 -0.090666355 -0.09113678 0.0031470049999999996 0.0018296649999999999 0.00569409 0.00487047 0.0074677649999999995 0.005747145 0.00937385 0.008464445 -0.07327943 -0.08639861500000001 -0.08710455 -0.08543718 -0.0873121 -0.08773367500000001 0.0002322349999999999 0.0010528299999999998 0.00899723 0.006988035 0.00035220999999999994 0.01391834 0.01496293 0.01301079 -0.08670910000000001 -0.088798045 -0.0900383 -0.089013725 0.021186415 0.02294053 0.001337955 -0.002124755 0.00413359 0.0016566250000000001 -0.006600895 -0.002542535 -0.00544805 0.014002865 0.010269865 0.011822055 -0.087566685 -0.08880694 -0.089219315 -0.00482277 -0.00180548 -0.00548924 -0.067010185 -0.06448606500000001 -0.088581895 -0.09044131 0.012956005 0.014164835 0.010757369999999999 0.037422739999999996 0.036233615 -4.65000000000001e-05 -0.00240969 -0.00010876000000000006 -0.08519587 -0.08626024 -0.086053455 -0.013109989999999998 -0.009927435 -0.01025734 -0.0060753 -0.01368845 -0.089183715 -0.08796172 -0.08686975 -0.03536552 -0.08279261 0.0373686 0.033529989999999996 0.03371123 -0.03493754 -0.08196548000000001 -0.08330167499999999 -0.08394346 -0.005819345 -0.00015412499999999986 -0.00770586 -0.02920319 -0.031099265 -0.031644825 -0.017213449999999998 -0.01912455 -0.01978159 -0.080417505 -0.083269625 -0.08282076499999999 -0.083754435 -0.08506088 -0.08645243999999999 -0.08585062 -0.08475864999999999 0.007954039999999999 0.00611194 0.00506433 0.035352545 0.00607806 -0.066306335 -0.007859255 -0.014176310000000001 -0.016400335 -0.0835516 0.03536273 -0.07017198 -0.069696435 -0.071778375 -0.0067926 0.00169212 0.00309203 -0.017972210000000002 -0.00679961 -0.078574685 -0.0806046 -0.091022325 -0.0909211 -0.00030752000000000004 -0.003694635 -0.081598405 -0.07967215999999999 -0.08060583 -0.08352615 0.02672896 0.02905854 0.027428735 0.024289235 -0.063574295 -0.08027269000000001 -0.08161548 -0.08240522 -0.02206714 -0.024559035 -0.07945193 -0.08011851 -0.07686228 -0.07812256 -0.076986405 -0.08037104 -0.02374538 -0.027799165 -0.07835933 -0.07788231500000001 -0.07713697 -0.070783635 -0.072034565 -0.028391384999999998 -0.07553291 -0.07728018 -0.07988073 -0.008787185 -0.07651651 0.018344834999999997 0.01846939 -0.07753078 -0.07938951 -0.07802109 -0.032356895 -0.076122755 -0.08024166 -0.07909528 -0.01308104 -0.017251445 0.00130976 0.002295585 -0.07282166500000001 -0.07311398999999999 -0.072795745 -0.073958185 -0.07395257 -0.07437047 -0.07896359 -0.07680756 -0.07644339 0.008496924999999999 0.007943625 0.0014203899999999999 -0.07032587 -0.07195716499999999 0.016325975 0.015632590000000002 -0.068340035 -0.074480515 0.0075219250000000005 0.0078311 -0.072853245 -0.074433585 0.008481625 0.005691244999999999 -0.07630984 -0.068272585 -0.06709148000000001 -0.073836455 -0.07487205 -0.07291483 -0.07606478 -0.07557356000000001 0.045138535 0.046946089999999996 0.0492957 -0.070591795 -0.07360069999999999 -0.07291589500000001 -0.07503177 -0.07122998 -0.06456198 -0.06700927000000001 -0.06651164500000001 -0.069041145 -0.069828245 -0.07195155 -0.071557965 -0.07162108 -0.07423518500000001 -0.075701185 -0.076682715 -0.07540174 -0.058110894999999996 -0.058246895 -0.06807226 -0.06902008500000001 -0.070014005 -0.067937265 -0.07066682499999999 -0.068527375 -0.07065068 -0.069418515 0.00400687 0.005135085 0.00566787 -0.07045628500000001 -0.07166945499999999 -0.073234075 -0.073100525 -0.070282155 0.026968699999999998 0.029408425000000002 -0.07102395 -0.07313830499999999 0.002221855 -0.07214598 -0.07056161999999999 -0.068981825 0.005636045 0.00665025 -0.06666653 -0.06286077500000001 -0.06489265 -0.06653622000000001 -0.066552365 -0.06757228000000001 -0.06847956499999999 -0.070688805 -0.071881535 -0.07200916 -0.031245034999999997 -0.03368667 -0.011841305 0.0041814650000000005 0.00477467 0.005571115 -0.06454626 -0.06694591 -0.062901495 -0.06673618 -0.068582415 -0.070257525 -0.072611175 -0.07387309 -0.07283416000000001 -0.07108252500000001 -0.0713696 0.000778175 -0.06941448 -0.06819850499999999 -0.066078235 -0.06850814499999999 -0.06937753499999999 -0.06834424 0.008243825 -0.063476305 -0.06200025000000001 -0.06559727 -0.068679385 -0.066936 0.028879455 -0.001100545 -0.060985700000000004 -0.061740965 -0.06012197 -0.06842546499999999 -0.066417535 0.030862235000000002 0.031667435 0.031672155 -0.05638793 -0.05863158 -0.06143548 -0.05995102 -0.05728464 -0.06171486 -0.06724839 -0.066071075 -0.08055811 -0.059230705 -0.062855295 -0.06389135500000001 -0.06869309 -0.068470105 -0.06581304499999999 -0.06455411 -0.063301515 -0.059337935 -0.05986541 -0.061571324999999996 -0.061687535 -0.06442951 -0.06453236 -0.06786808999999999 -0.005769775 -0.063294355 0.006741665 -0.059911610000000004 -0.065102715 -0.062796045 -0.06519968500000001 -0.06487282 -0.06666024000000001 0.0008701649999999999 -0.063515685 -0.06534897 0.034943075000000004 -0.053732505 -0.058007765 0.03697096 0.033987594999999995 0.032732515000000004 -0.05566707 -0.05434763 -0.061253100000000005 -0.05814232 -0.059728975000000004 0.03454093 -0.060196639999999996 -0.059658485 -0.060766995000000004 -0.061539285 -0.06168857 -0.059397615 -0.06215332 -0.063324965 -0.06305733999999999 -0.052114935 -0.06094547 -0.04769682 -0.049510725 -0.05012585 -0.0629691 -0.062284595 -0.06509295500000001 0.0010623949999999998 -0.043365885 -0.044899335 -0.045893715 -0.04652726 -0.06404444 -0.064338725 -0.065591365 -0.05896907 -0.05978462 -0.039201515 -0.040973935 -0.041873839999999996 -0.042270144999999995 -0.044662095 -0.04629002 -0.05590729 -0.05297028 -0.05544553 -0.061898195 -0.0624054 0.0009901550000000002 -0.046950905 -0.049555115 -0.046719915 -0.04989486 -0.05584978 -0.056710595 -0.05875901 -0.058879815 -0.06365804 -0.057209715 -0.056466615 -0.057723105 -0.045719285 -0.0562057 -0.057377344999999996 -0.05453119 -0.034557985 -0.03608112 -0.036361495 -0.040286699999999995 -0.043074955 -0.052040465 -0.052280685 -0.063115605 -0.049203 -0.0463678 -0.048513404999999996 -0.049227585000000004 -0.04978803 -0.048818065 -0.05681503 -0.059954215 -0.063107075 -0.04639012 -0.06273779 -0.061641185 -0.054734655 -0.038145319999999996 -0.03734051 -0.04373584 -0.043825585 -0.041181255 -0.061632654999999995 -0.052714385 0.002120355 -0.016668965 -0.039031015 -0.036084825 -0.03832041 -0.040380904999999995 -0.0595764 -0.060688455 -0.052681015 -0.053026775 -0.052501765 5.3499999999999945e-05 0.031726295 -0.034220115 -0.05734458 -0.055657609999999996 -0.05120997 -0.050651589999999996 -0.034280165 -0.03339447 -0.032498575 -0.03518893 -0.03573697 -0.03751856 -0.04218703 -0.041847285 -0.04886309 -0.04833808 0.010031185 -0.029435295 -0.02845628 -0.057258645 -0.05783356 0.010777465 0.01701175 -0.0312576 -0.025493765 -0.029452940000000004 -0.04149517 -0.04244897 -0.051305724999999996 -0.044383160000000005 -0.049359265 -0.05379417 -0.05486857 -0.058020895 -0.056196289999999996 0.0179193 -0.017879515 -0.02033075 -0.024817739999999998 -0.02883263 -0.02669576 -0.034410725 -0.032081095000000004 -0.031959125000000005 -0.052636749999999996 -0.009945744999999999 -0.030629405 -0.02972064 -0.02930316 -0.031414525 -0.042157605 -0.037976835 -0.038930635000000005 0.016116975 -0.02696346 0.003851955 -0.027255855000000002 -0.025804165 -0.04937999 -0.046891545 -0.023080879999999998 -0.02396889 -0.05016903 -0.023570124999999997 -0.0366658 -0.036957165 -0.044392015 -0.020528495 -0.020343575000000003 -0.019723265 -0.056603694999999996 -0.05809459 -0.05681062 -0.056236944999999997 -0.05475173 -0.053249174999999996 -0.05397481
