# Edges conflicts graph.
TITLE="Edges conflicts graph"
VARIABLES="X", "Y", "Z", "C"
ZONE T="Edges conflicts graph"
NODES=20634
ELEMENTS=40341
DATAPACKING=BLOCK
ZONETYPE=FETRIANGLE
-0.0452995840460062 -0.045072540640830994 -0.04511192627251148 -0.0307388212531805 -0.030612637288868427 -0.030447262339293957 -0.05165921151638031 -0.05165044963359833 -0.05173901841044426 -0.01421559322625399 -0.01443445449694991 -0.01447497820481658 -0.04925708286464214 -0.04905836470425129 -0.04909157007932663 -0.05121137015521526 -0.05112539790570736 -0.051085472106933594 -0.01018513273447752 -0.010230343788862228 -0.01043669879436493 -0.050507932901382446 -0.05059382505714893 -0.050656599923968315 -0.01087017171084881 -0.010628527961671356 -0.010570372454822063 -0.019192727282643315 -0.018908554688096046 -0.019032087177038193 -0.01670882757753134 -0.0164570901542902 -0.01653642486780882 -0.04777819290757179 -0.047963883727788925 -0.04790395498275757 -0.04782476834952831 -0.04762009531259537 -0.047705138102173805 -0.01215919340029359 -0.011921861208975315 -0.011930476408451796 -0.03376492112874985 -0.03398216515779495 -0.033606141805648804 -0.035577161237597466 -0.03577559068799019 -0.03543531335890293 -0.04307240806519985 -0.04318678751587868 -0.04332183860242367 -0.03314059041440487 -0.03329389914870262 -0.032986706122756004 -0.03622029162943363 -0.03607782907783985 -0.03638068214058876 -0.03682715259492397 -0.03668012283742428 -0.03696474805474281 -0.01082409918308258 -0.01058595348149538 -0.010603585280478 -0.04296126402914524 -0.04282621294260025 -0.04217165522277355 -0.04246600903570652 -0.04239453375339508 -0.04320239834487438 -0.042910413816571236 -0.042980872094631195 -0.041902825236320496 -0.041974300518631935 -0.04160635732114315 -0.04131213389337063 -0.04141124710440636 -0.04180371202528477 -0.04473511502146721 -0.044450463727116585 -0.04451909475028515 -0.04346606694161892 -0.04339560866355896 -0.04372585006058216 -0.04401343315839767 -0.04394686035811901 -0.04353263974189758 -0.045011572539806366 -0.0449429415166378 -0.04527062736451626 -0.04546861909329891 -0.04541739076375961 -0.045062800869345665 -0.01624378841370344 -0.015957548283040524 -0.016095729544758797 -0.016226762905716896 -0.015940522775053978 -0.0163505245000124 -0.01617812179028988 -0.016505731269717216 -0.019282758235931396 -0.019451159983873367 -0.01959034614264965 -0.019312032498419285 -0.01961962040513754 -0.01917279697954655 -0.01903362013399601 -0.01934131607413292 -0.019004336558282375 -0.019685640931129456 -0.019854042679071426 -0.02854098286479712 -0.02869677916169167 -0.02841208223253489 -0.029889174737036228 -0.030042157508432865 -0.029782241210341454 -0.02639697585254908 -0.026156069710850716 -0.026215351186692715 -0.01812952756881714 -0.018021891824901104 -0.018298250623047355 -0.01831538882106543 -0.018576900474727154 -0.018486402928829193 -0.04310915432870388 -0.043368853628635406 -0.04326019249856472 -0.04246292635798454 -0.042570045217871666 -0.04231790266931057 -0.02999762073159218 -0.02973770443350077 -0.030142051167786125 -0.030293521471321583 -0.029990308918058876 -0.03028620965778828 -0.0464333388954401 -0.046574244275689125 -0.04635622352361679 -0.009760357439517975 -0.009892805479466915 -0.01005470845848322 -0.03093150444328785 -0.031219043768942356 -0.031092518009245396 -0.011223245412111279 -0.01152745587751269 -0.01132429530844092 -0.051110709086060524 -0.051257943734526634 -0.05114195868372917 -0.041208818554878235 -0.04101370833814144 -0.04060126841068268 -0.04085224121809006 -0.04054311662912369 -0.04358077049255371 -0.04339645430445672 -0.043704207986593246 -0.04297522082924843 -0.04319213330745698 -0.04289433732628822 -0.033935705199837685 -0.034068336710333824 -0.03427357599139214 -0.033559681847691536 -0.03324238210916519 -0.03341316618025303 -0.035796044394373894 -0.03595643490552902 -0.035455767065286636 -0.035136548802256584 -0.03535543195903301 -0.01420138543471694 -0.014469892252236605 -0.014345435425639156 -0.043955614790320396 -0.0437712986022234 -0.012241953052580355 -0.01187679311260581 -0.012085176538676025 -0.012674666941165924 -0.01277584070339799 -0.013000171165913345 -0.01977828145027161 -0.020073717460036278 -0.019922243431210518 -0.019615748897194862 -0.019464274868369102 -0.026507580652832985 -0.026215352118015286 -0.02636520005762577 -0.026668003760278225 -0.02681785169988871 -0.03441769815981389 -0.03455032967031003 -0.03493226133286953 -0.034831926226615906 -0.033107539638876915 -0.03296102397143841 -0.009715646971017122 -0.009910379536449906 -0.010016679298132655 -0.05191441997885704 -0.05183638073503972 -0.051856303587555885 -0.025467729195952415 -0.025677245110273365 -0.02535933256149292 -0.02082815766334534 -0.02061709761619568 -0.02093743346631527 -0.04966465383768082 -0.04983998090028763 -0.04988313093781471 -0.045025985687971115 -0.044838327914476395 -0.049758780747652054 -0.049666957929730415 -0.0498382281512022 -0.0496916975826025 -0.04964102804660797 -0.04953684099018574 -0.045533742755651474 -0.04568050615489483 -0.01524667302146554 -0.015403748489916321 -0.01548937289044261 -0.01526493206620216 -0.014978663530200715 -0.015082546975463625 -0.033229900524020195 -0.03295414708554745 -0.03310864791274071 -0.03204423747956753 -0.03190776705741882 -0.03172682784497738 -0.03252928704023361 -0.03239252045750618 -0.03269663080573082 -0.032211581245064735 -0.03425748459994793 -0.034098705276846886 -0.03489888273179531 -0.035131094977259636 -0.035052187740802765 -0.03331145830452442 -0.03349925950169563 -0.0336355846375227 -0.03328201547265053 -0.033004265278577805 -0.03286749869585037 -0.035126108676195145 -0.03532453812658787 -0.03569195605814456 -0.035362761467695236 -0.03557736612856388 -0.03538781404495239 -0.03514132276177406 -0.035230860114097595 -0.04944680631160736 -0.04954697750508785 -0.04961324669420719 -0.03373007848858833 -0.033917879685759544 -0.01621870510280132 -0.01604971755295992 -0.01633331272751093 -0.030038995668292046 -0.0301427710801363 -0.029883937910199165 -0.05137016437947751 -0.05140141397714615 -0.05156808905303478 -0.05168279446661472 -0.051628340035676956 -0.01485166465863585 -0.014669279567897315 -0.01591509208083153 -0.01602165773510933 -0.048522431403398514 -0.048411523923277855 -0.0486325528472662 -0.04806976206600666 -0.048195524141192436 -0.048376938328146935 -0.0482710599899292 -0.0470278337597847 -0.04714388586580753 -0.04690728895366192 -0.047502078115940094 -0.04738244786858559 -0.047177791595458984 -0.04729580879211426 -0.04630826413631439 -0.046215083450078964 -0.046059366315603256 -0.05059080384671688 -0.050607092678546906 -0.05045945383608341 -0.04947763308882713 -0.04928724467754364 -0.04943111538887024 -0.04952078312635422 -0.04954778403043747 -0.049360763281583786 -0.04677663370966911 -0.04691414162516593 -0.04665471985936165 -0.015783220529556274 -0.015897828154265884 -0.01565196271985769 -0.015500073321163654 -0.04874119535088539 -0.04862714931368828 -0.048851244151592255 -0.04309308901429176 -0.04335645213723183 -0.04324208199977875 -0.04284689389169216 -0.04270187020301819 -0.030483233742415905 -0.030328175984323025 -0.030600082129240036 -0.03078548703342676 -0.03134424891322851 -0.03150526247918606 -0.03268320485949516 -0.032836513593792915 -0.03237909451127052 -0.03225098364055157 -0.032097065821290016 -0.0324162095785141 -0.03271801583468914 -0.03253108821809292 -0.04668130725622177 -0.046797359362244606 -0.04884208366274834 -0.04873117618262768 -0.05149685777723789 -0.05137764289975166 -0.05136530287563801 -0.040885694324970245 -0.0406995452940464 -0.04093574732542038 -0.03999556601047516 -0.04009886831045151 -0.03980229049921036 -0.047814274206757545 -0.04769143462181091 -0.047911809757351875 -0.04776144213974476 -0.047885652631521225 -0.04766475968062878 -0.03192014992237091 -0.03201676532626152 -0.03175641968846321 -0.036073844879865646 -0.03593199700117111 -0.036376697942614555 -0.036386389285326004 -0.036523984745144844 -0.03667043149471283 -0.03526707738637924 -0.035420382395386696 -0.01437482796609402 -0.014643334783613685 -0.034497788175940514 -0.03432716242969036 -0.03419731184840202 -0.03470207564532757 -0.03449920192360878 -0.03483333997428417 -0.0338801983743906 -0.0341473538428545 -0.03401517868041992 -0.033597903326153755 -0.03344401903450489 -0.033595263957977295 -0.03329125978052616 -0.05191955715417862 -0.05183488689363003 -0.05185217224061489 -0.0484804455190897 -0.048558322712779045 -0.04834340140223503 -0.04808720946311951 -0.04816508665680885 -0.0478656142950058 -0.048043929040431976 -0.01911523099988699 -0.019277763552963734 -0.027162962593138218 -0.027002539485692978 -0.04200184531509876 -0.04177195578813553 -0.041870566084980965 -0.0418043527752161 -0.04207318276166916 -0.04202619194984436 -0.041729724034667015 -0.041828639805316925 -0.04208811931312084 -0.04196455515921116 -0.0444986242800951 -0.04475484788417816 -0.044686635956168175 -0.04471508786082268 -0.04443766735494137 -0.04458591900765896 -0.040346959605813026 -0.04011884704232216 -0.04013615660369396 -0.040186932310462 -0.040491631254553795 -0.04034891352057457 -0.0407026931643486 -0.04039356857538223 -0.040269603952765465 -0.04057430289685726 -0.040806008502840996 -0.0408853180706501 -0.043334707617759705 -0.043594490736722946 -0.041109491139650345 -0.04140791669487953 -0.04150683246552944 -0.041438814252614975 -0.041240571066737175 -0.041630396619439125 -0.041051339358091354 -0.04098332114517689 -0.04336938634514809 -0.043626703321933746 -0.043529853224754333 -0.0435627568513155 -0.04329908825457096 -0.04125630483031273 -0.0412931963801384 -0.04111064225435257 -0.04220118559896946 -0.0424896702170372 -0.04238894023001194 -0.0416282769292593 -0.04136201553046703 -0.041703103110194206 -0.04191095754504204 -0.04173446260392666 -0.044878629967570305 -0.0451376847922802 -0.04490521550178528 -0.04512085020542145 -0.04507897421717644 -0.045083245262503624 -0.04480678774416447 -0.010163703933358194 -0.010152298491448166 -0.00991085497662425 -0.010385293513536455 -0.010132444556802511 -0.010623439215123655 -0.050788022577762604 -0.050656672567129135 -0.04944194667041302 -0.04940874129533768 -0.030109511688351635 -0.029996272176504135 -0.03026832640171051 -0.01501502702012658 -0.01487790094688535 -0.01468601729720831 -0.015144381206482645 -0.015336264856159684 -0.014996804296970364 -0.01531804213300347 -0.04638466238975525 -0.04625718295574188 -0.0461328849196434 -0.04652629606425762 -0.0466505941003561 -0.046388788148760796 -0.03113721963018179 -0.03127223718911409 -0.03145533986389637 -0.03103000018745661 -0.03084689751267433 -0.03117950074374676 -0.0308891786262393 -0.04906221479177474 -0.04918375425040722 -0.049295445904135704 -0.04895555227994919 -0.0488438606262207 -0.0490695983171463 -0.01516669010743499 -0.015021285507827994 -0.014891305938363075 -0.03179003112018108 -0.03193116374313831 -0.03209072723984718 -0.032121676951646805 -0.03199741989374161 -0.031825337558984756 -0.03166482597589493 -0.03223341703414917 -0.03240549936890603 -0.0323745496571064 -0.01294539729133248 -0.012972637079656124 -0.013214359525591135 -0.014057003892958164 -0.014054444152861835 -0.014323282521218061 -0.051569487899541855 -0.051649294793605804 -0.05165825970470905 -0.051739221438765526 -0.024864486418664455 -0.025011669844388965 -0.02475822251290083 -0.021435555070638657 -0.021287604235112667 -0.02154253702610731 -0.04524883069097996 -0.04501922987401485 -0.04513700678944588 -0.03913908451795578 -0.039312923327088356 -0.03899548761546612 -0.038655493408441544 -0.03882933221757412 -0.03836776502430439 -0.03853392042219639 -0.051889657974243164 -0.051819927990436554 -0.05187378451228142 -0.05184081755578518 -0.05176876299083233 -0.05176374688744545 -0.05151879973709583 -0.051406579092144966 -0.03085397183895111 -0.03101934678852558 -0.03096973802894354 -0.03068921249359846 -0.051461417227983475 -0.05151587165892124 -0.05131794698536396 -0.016215545125305653 -0.01630145125091076 -0.01609776820987463 -0.044590361416339874 -0.04463691636919975 -0.04420582763850689 -0.04413873702287674 -0.04709842801094055 -0.047225793823599815 -0.047010743990540504 -0.05189202353358269 -0.051897039636969566 -0.05194588005542755 -0.010177576448768377 -0.010181360878050327 -0.01038770331069827 -0.013773408252745865 -0.013968500308692455 -0.01403383584693074 -0.03131750971078873 -0.03120235912501812 -0.031417788937687874 -0.03160080127418041 -0.05089566111564636 -0.050794944167137146 -0.05094604566693306 -0.051311105489730835 -0.05143222585320473 -0.051351021975278854 -0.05127909779548645 -0.05140021815896034 -0.05113833211362362 -0.05118752829730511 -0.0424022451043129 -0.042122116312384605 -0.04222244583070278 -0.051819467917084694 -0.051810912787914276 -0.05175674147903919 -0.05183378420770168 -0.051766399294137955 -0.05188795551657677 -0.014307684265077114 -0.0145774194970727 -0.014590458013117315 -0.04900049977004528 -0.04883498698472977 -0.028033318929374218 -0.02786382380872965 -0.02812790498137474 -0.027482237666845325 -0.027633009478449825 -0.02734600938856602 -0.027904662303626537 -0.027768434025347233 -0.018231776542961594 -0.01840419601649046 -0.018135739490389824 -0.0187847139313817 -0.018624073825776577 -0.01836256217211485 -0.0509002897888422 -0.05084556899964809 -0.05100741609930992 -0.05094986967742443 -0.05109643191099167 -0.05098416469991207 -0.051385801285505295 -0.05147016420960426 -0.0515066422522068 -0.0514366440474987 -0.05155748501420021 -0.05131925828754902 -0.0125954425893724 -0.012768018525093796 -0.012471904046833515 -0.030857579782605175 -0.031195512041449547 -0.03103453293442726 -0.03053908329457045 -0.03042584378272295 -0.030861794948577884 -0.030704277567565445 -0.03175844065845013 -0.03151613473892212 -0.031614771112799644 -0.0425842460244894 -0.04274485073983669 -0.04281975701451302 -0.04705177620053291 -0.04699183441698551 -0.04719805158674717 -0.01344854012131691 -0.013475779909640554 -0.01401790138334036 -0.01389344455674291 -0.013749063014984134 -0.01351488241925836 -0.01192236877977848 -0.011693651787936684 -0.014246139209717509 -0.014490316156297919 -0.01450172439217567 -0.049272457137703896 -0.049338726326823235 -0.01288812281563878 -0.013159852940589186 -0.012860856018960476 -0.01264640036970377 -0.012395027559250595 -0.012452302034944296 -0.04426269605755806 -0.04411059245467186 -0.04435058310627937 -0.0444458182901144 -0.04469378478825092 -0.028870385140180588 -0.029062914662063122 -0.028875385411083695 -0.01739659998565912 -0.0171830328181386 -0.01739146001636982 -0.048763301223516464 -0.0486262571066618 -0.051743095740675926 -0.051671041175723076 -0.05153633467853069 -0.05162069760262966 -0.05172722227871418 -0.05169752985239029 -0.05177704989910126 -0.05169997923076153 -0.051608731970191 -0.05173788405954838 -0.05163834989070892 -0.05159639194607735 -0.05158810503780842 -0.04921930842101574 -0.049393657594919205 -0.04908629320561886 -0.04903136193752289 -0.03980467654764652 -0.03978089615702629 -0.03954135812819004 -0.035136427730321884 -0.03502799943089485 -0.03490690514445305 -0.04017050378024578 -0.03994239121675491 -0.01835763081908226 -0.0181626183912158 -0.01843422371894121 -0.018778977915644646 -0.018583965487778187 -0.019063055515289307 -0.01891331374645233 -0.01672311034053564 -0.01658094022423029 -0.016865326091647148 -0.027938416227698326 -0.02812691405415535 -0.027838336303830147 -0.027498744428157806 -0.02768724225461483 -0.02721457090228796 -0.027365664951503277 -0.027114801108837124 -0.02726005855947733 -0.027017842046916485 -0.04395430348813534 -0.0438047219067812 -0.04404889792203903 -0.043866416439414024 -0.047170570120215416 -0.04728830233216286 -0.04742281697690487 -0.047449491918087006 -0.04732916317880154 -0.04718475602567196 -0.04704865626990795 -0.047547027468681335 -0.0483892299234867 -0.04827587492763996 -0.048148004338145256 -0.048121847212314606 -0.048235706984996796 -0.04837521910667419 -0.04849927872419357 -0.048025164753198624 -0.01056454936042428 -0.01080924179404974 -0.01056732377037406 -0.010098874103277922 -0.010325680021196604 -0.010101922787725925 -0.029248579405248165 -0.029253579676151276 -0.016993405297398564 -0.016988265328109264 -0.04465443268418312 -0.04445856437087059 -0.044697247445583344 -0.04863591119647026 -0.04869377613067627 -0.048593852669000626 -0.04845264181494713 -0.04747641831636429 -0.04738873429596424 -0.04744867607951164 -0.04769625701010227 -0.04790103994309902 -0.04784414172172546 -0.047533316537737846 -0.04767489805817604 -0.04748421534895897 -0.04654591158032417 -0.04665859043598175 -0.04676403850317001 -0.04632789082825184 -0.04611465521156788 -0.04622722789645195 -0.046367062255740166 -0.04631821438670158 -0.046545976772904396 -0.04537782818078995 -0.0450926274061203 -0.04522806033492088 -0.03928825445473194 -0.03941376507282257 -0.03958203084766865 -0.0389708187431097 -0.0387121606618166 -0.03886133059859276 -0.04009651578962803 -0.03995051980018616 -0.03985353745520115 -0.04042149521410465 -0.04047154821455479 -0.040337007492780685 -0.04010901041328907 -0.029847022145986557 -0.029739920981228355 -0.029610919766128063 -0.05111983232200146 -0.05126059800386429 -0.04261235147714615 -0.04272349551320076 -0.04236020892858505 -0.04254603013396263 -0.04225755110383034 -0.04229394719004631 -0.04210812598466873 -0.05160541459918022 -0.05167412385344505 -0.051709555089473724 -0.051449138671159744 -0.05152106285095215 -0.01649373583495617 -0.01637595891952515 -0.016390686854720116 -0.016198402270674706 -0.01665333099663258 -0.016475774347782135 -0.029775558039546013 -0.029934372752904892 -0.044316789135336876 -0.044167207553982735 -0.045006414875388145 -0.04499026946723461 -0.04477562755346298 -0.04524062760174274 -0.04115385003387928 -0.04096770100295544 -0.0441150888800621 -0.044361451640725136 -0.04425501637160778 -0.044325968250632286 -0.0440619383007288 -0.044166382402181625 -0.04448132775723934 -0.04462125524878502 -0.04458577185869216 -0.025929955765604973 -0.025659970939159393 -0.025838833302259445 -0.02036169357597828 -0.02063434850424528 -0.02045371849089861 -0.028352675028145313 -0.028183179907500744 -0.03028764110058546 -0.030161457136273384 -0.02985992841422558 -0.030019549652934074 -0.029578329995274544 -0.029720237478613853 -0.017907080240547654 -0.01807949971407652 -0.012798701878637075 -0.01284912275150418 -0.013082165271043774 -0.012577392626553776 -0.012343733105808496 -0.01235546637326479 -0.018301387317478657 -0.01853375229984522 -0.018592651933431625 -0.04305273853242397 -0.04330216906964779 -0.04322032816708087 -0.042939599603414536 -0.04299180768430233 -0.011048532091081139 -0.0111212688498199 -0.01089096860960126 -0.011313725262880325 -0.01156260073184967 -0.011597493663430216 -0.011156161781400446 -0.0499839223921299 -0.050154561176896095 -0.050100745633244514 -0.05115080811083317 -0.05109608732163906 -0.014056986663490534 -0.014228194020688534 -0.01400386216118932 -0.04596986994147301 -0.04586920700967312 -0.045483408495783806 -0.04562075436115265 -0.04537974111735821 -0.04561884142458439 -0.04576362669467926 -0.04592917859554291 -0.04583599790930748 -0.045536208897829056 -0.045666396617889404 -0.04531592316925526 -0.04548552446067333 -0.044259993359446526 -0.04429757967591286 -0.04447268508374691 -0.04382854327559471 -0.04399210214614868 -0.04373575747013092 -0.01136920461431146 -0.011617204640060665 -0.011512145400047306 -0.0110962362959981 -0.011201295536011461 -0.011417299509048465 -0.01166529953479767 -0.011322157457470894 -0.01116900332272053 -0.05127480626106262 -0.05118355341255665 -0.015813928097486496 -0.015739907510578632 -0.0160035053268075 -0.015402061864733696 -0.015591639094054699 -0.04630463197827339 -0.04637278616428375 -0.04614857956767082 -0.045924270525574684 -0.045984433963894844 -0.04615657031536102 -0.0455455519258976 -0.04550616629421711 -0.04915948957204819 -0.04911297187209129 -0.013148189522325996 -0.013249363284558061 -0.04455949179828167 -0.044543346390128136 -0.04435808025300503 -0.044107867404818535 -0.04409278742969036 -0.04387344419956207 -0.014537855982780455 -0.014535296242684126 -0.014986801892518994 -0.014805031474679708 -0.015041963662952185 -0.05131008103489876 -0.05137777701020241 -0.051498621702194214 -0.051534052938222885 -0.05133901350200176 -0.05140623822808266 -0.0514595340937376 -0.01540325954556465 -0.01522356830537319 -0.01547636091709137 -0.014948184136301276 -0.009541091043502092 -0.009752600453794003 -0.009802269283682108 -0.045147091150283813 -0.04536272585391998 -0.04548935405910015 -0.045687345787882805 -0.035795437172055244 -0.035833440721035004 -0.036072513088583946 -0.03125622868537903 -0.03143318183720112 -0.009507548529654741 -0.009744358714669943 -0.009741967543959618 -0.019183345139026642 -0.01889917254447937 -0.018728158436715603 -0.018606198020279408 -0.018498562276363373 -0.01897504087537527 -0.019114227034151554 -0.018928470090031624 -0.01923618745058775 -0.01883574854582548 -0.018696513026952744 -0.018302503041923046 -0.018359269946813583 -0.01813384797424078 -0.01866721734404564 -0.029472466558218002 -0.02963773999363184 -0.02934757713228464 -0.029013896360993385 -0.029179169796407223 -0.026598908938467506 -0.026717426255345345 -0.02645621169358492 -0.016995491459965706 -0.01717792358249426 -0.016995460726320744 -0.017361494712531567 -0.017361463978886604 -0.02911212481558323 -0.028946797363460064 -0.029233242385089394 -0.01450301753357053 -0.01472187880426645 -0.01452228194102645 -0.01427538134157658 -0.014805055689066648 -0.014993536751717329 -0.01504867430776358 -0.012018974870443344 -0.011903806123882529 -0.012148738373070955 -0.013369810301810505 -0.013509109150618315 -0.01364524196833372 -0.01306261727586389 -0.012939078733325005 -0.013128728140145545 -0.013299788348376754 -0.050141362473368645 -0.050068773329257965 -0.05023102648556232 -0.04983465559780598 -0.049780840054154396 -0.0497137289494276 -0.04991681128740311 -0.04955887235701084 -0.051676373928785324 -0.05167747661471367 -0.05154832452535629 -0.05148201063275337 -0.05144288390874863 -0.045379964634776115 -0.045483922585844994 -0.04523501172661781 -0.04549774155020714 -0.04585465043783188 -0.04579753056168556 -0.046023305505514145 -0.019288881681859493 -0.019009454175829887 -0.01913981232792139 -0.018211668357253075 -0.018077395856380463 -0.017951752990484238 -0.018483273684978485 -0.018744810484349728 -0.018598848022520542 -0.02807748317718506 -0.02818524558097124 -0.02833475638180971 -0.027788905426859856 -0.027531951665878296 -0.02767101861536503 -0.025899012573063374 -0.026171676814556122 -0.026033555157482624 -0.02699137292802334 -0.02726705651730299 -0.027138381265103817 -0.03972339443862438 -0.03957739844918251 -0.039283622056245804 -0.03906717151403427 -0.03923080489039421 -0.037632763385772705 -0.03739063814282417 -0.037514828145504 -0.04609498009085655 -0.046235885471105576 -0.046056970953941345 -0.04584953188896179 -0.045745864510536194 -0.020393305458128452 -0.02011801116168499 -0.02025740686804056 -0.04513823427259922 -0.04527558013796806 -0.044963594526052475 -0.044767726212739944 -0.04488760232925415 -0.04499176330864429 -0.03689815104007721 -0.03715401142835618 -0.037016842514276505 -0.03664206340909004 -0.03649960085749626 -0.04799133352935314 -0.04813921824097633 -0.04836210608482361 -0.04827181249856949 -0.04841664992272853 -0.04854924418032169 -0.02489568013697863 -0.025142663158476353 -0.025027604773640633 -0.024695830419659615 -0.02443491853773594 -0.024519709870219234 -0.021404165774583817 -0.02115562930703163 -0.021271398290991787 -0.021605211310088634 -0.02186731994152069 -0.021782043389976025 -0.01158978138118982 -0.011353227775543925 -0.011516603175550696 -0.011687011457979676 -0.01145045785233378 -0.01310065807774663 -0.013236790895462034 -0.012806059326976534 -0.012695778161287304 -0.012534198816865679 -0.04015369527041912 -0.04034746065735817 -0.03717365674674511 -0.03735022433102131 -0.03746833652257919 -0.01988566294312477 -0.020133303478360176 -0.020069628953933716 -0.028690013103187084 -0.02881113067269325 -0.028618601150810715 -0.030317582190036774 -0.030210648663342 -0.0306455260142684 -0.03077205177396536 -0.05088913068175316 -0.05076267942786217 -0.050733327865600586 -0.0509566031396389 -0.05107258819043636 -0.051029447466135025 -0.051000095903873444 -0.03488371521234512 -0.03508658893406391 -0.03497846983373165 -0.03472522087395191 -0.035366980358958244 -0.035210682079195976 -0.03544069826602936 -0.03455387242138386 -0.03445911779999733 -0.03535262495279312 -0.03506333753466606 -0.014079330954700708 -0.01406006654724479 -0.01360919326543808 -0.013686658814549444 -0.013431835919618605 -0.012785735074430704 -0.012489620596170425 -0.05032758787274361 -0.05034387670457363 -0.04570424370467663 -0.04545827582478523 -0.04587638005614281 -0.04543870501220226 -0.045601749792695045 -0.04538410156965256 -0.01999501883983612 -0.01985912024974823 -0.019447325728833675 -0.01961593609303236 -0.019327133893966675 -0.01957768388092518 -0.019700676202774048 -0.025780663825571537 -0.02562762517482042 -0.025884095579385757 -0.025267465971410275 -0.02539939060807228 -0.02564254216849804 -0.025517739355564117 -0.02051262278109789 -0.02066703233867884 -0.02040831930935383 -0.02102986630052328 -0.02089709881693125 -0.02065201848745346 -0.02077778149396181 -0.018929029814898968 -0.018779960460960865 -0.02206322457641363 -0.02192461583763361 -0.022182760760188103 -0.0215467382222414 -0.0216932138428092 -0.02143487241119146 -0.021662507206201553 -0.026293331757187843 -0.026427874341607094 -0.026834788732230663 -0.026668312959372997 -0.026953572407364845 -0.026706113480031494 -0.02658445853739977 -0.03824337385594845 -0.03810996375977993 -0.03835434466600418 -0.03775378316640854 -0.03789287433028221 -0.03764766454696655 -0.037877973169088364 -0.037988943979144096 -0.024239581078290936 -0.02437779400497675 -0.024120585061609745 -0.024753764271736145 -0.024608079344034195 -0.0248650535941124 -0.024638705886900425 -0.02734631486237049 -0.02749332319945097 -0.036769868806004524 -0.03691715560853481 -0.037262583151459694 -0.03714464791119099 -0.036888787522912025 -0.013557943049818274 -0.013349334243685005 -0.01355290692299604 -0.013812765944749113 -0.014008816331624985 -0.013968292623758314 -0.03287051245570183 -0.03298539109528065 -0.033261144533753395 -0.04908640310168266 -0.04919448308646679 -0.04911615327000618 -0.04930220730602741 -0.04889277555048466 -0.05091086961328983 -0.05104605108499527 -0.05102432705461979 -0.050749074667692184 -0.05077497474849224 -0.05063490383327007 -0.050770798698067665 -0.05039298161864281 -0.05021502822637558 -0.05023641139268875 -0.05054193176329136 -0.050537584349513054 -0.050665151327848434 -0.05052054859697819 -0.05048852972686291 -0.050440194085240364 -0.050319720059633255 -0.05020289681851864 -0.01582514913752675 -0.015677090268582106 -0.015392611268907785 -0.015525010414421558 -0.01592252030968666 -0.01575940568000078 -0.01562873367220163 -0.01566826971247792 -0.01594872772693634 -0.015481156762689349 -0.015357578173279759 -0.015793915372341875 -0.015662882011383775 -0.015378403011709455 -0.015637451317161325 -0.01537000434473157 -0.015491181053221226 -0.047912221401929855 -0.04814789816737175 -0.048074159771203995 -0.04823102802038193 -0.04839296638965607 -0.016698719933629036 -0.016862827353179455 -0.016559048555791378 -0.016224066726863384 -0.016388174146413803 -0.016093394719064236 -0.016250274144113064 -0.03043726645410061 -0.030589008703827858 -0.03088325262069702 -0.03073219582438469 -0.04766479507088661 -0.047422900795936584 -0.0474974662065506 -0.047332050278782845 -0.04716472141444683 -0.03280397504568099 -0.03268272243440151 -0.03238091617822647 -0.03271262906491756 -0.033016130328178406 -0.03301506675779819 -0.03274769149720669 -0.03316737525165081 -0.03329019621014595 -0.05035248398780823 -0.05041525885462761 -0.0304471543058753 -0.030591584742069244 -0.030885828658938404 -0.030615645460784435 -0.030901623889803886 -0.030294588766992092 -0.030453448183834553 -0.03058081865310669 -0.03058101236820221 -0.030278213322162628 -0.03073031920939684 -0.03088937234133482 -0.047144245356321335 -0.04739649221301079 -0.04667183570563793 -0.04689781740307808 -0.046904174610972404 -0.046644752845168114 -0.04701236449182034 -0.04713788814842701 -0.03291509859263896 -0.03278098814189434 -0.032651349902153015 -0.03265900537371635 -0.03293043002486228 -0.03250866010785103 -0.03238220512866974 -0.016847391612827774 -0.016987020149827 -0.017142127268016335 -0.016537127085030075 -0.016398945823311806 -0.0165436128154397 -0.016676802188158035 -0.01680056378245354 -0.017274816520512104 -0.017429877072572705 -0.01712669525295496 -0.0168319595977664 -0.031177331693470478 -0.03132966626435518 -0.03148055821657181 -0.03147934563457966 -0.031193126924335957 -0.031036720611155033 -0.02939119189977646 -0.029271750710904598 -0.02912000846117735 -0.029694542288780216 -0.02983870077878237 -0.04839724861085415 -0.048156023025512695 -0.033548057079315186 -0.03368506766855717 -0.03344622068107128 -0.0331769734621048 -0.03331398405134678 -0.03304733522236347 -0.03319230489432812 -0.046309635043144226 -0.046369798481464386 -0.04882990010082722 -0.04862036928534508 -0.048618096858263016 -0.04884219169616699 -0.04849824495613575 -0.04839952103793621 -0.029538005590438843 -0.029376150108873844 -0.029674706049263477 -0.03000188991427422 -0.029840034432709217 -0.030129260383546352 -0.029985514469444755 -0.029689747840166095 -0.04914398305118084 -0.04927144944667816 -0.049113260582089424 -0.03178075700998306 -0.03208145312964916 -0.032080164179205894 -0.03178196959197521 -0.031931087374687195 -0.03223179839551449 -0.03162963502109051 -0.0465397983789444 -0.04674949683248997 -0.04667367972433567 -0.04638408124446868 -0.013768529519438744 -0.013907828368246555 -0.014286698307842014 -0.014448115602135655 -0.01419253321364522 -0.013938477728515865 -0.014099895022809505 -0.01367589132860303 -0.012366946320980786 -0.012256665155291554 -0.011829933151602745 -0.011924779042601585 -0.011989425402134655 -0.012156677898019549 -0.01172994589433074 -0.03466353937983513 -0.034742446616292 -0.034365201368927956 -0.03431027755141258 -0.03416837565600872 -0.03439743630588055 -0.03420061059296131 -0.011613521724939346 -0.011862397193908691 -0.011914504691958431 -0.01201040577143431 -0.01175046805292368 -0.01146669965237379 -0.019933810457587246 -0.019655238837003708 -0.019774315878748894 -0.020153398625552654 -0.020307808183133606 -0.019894507713615894 -0.03720737621188164 -0.03706034645438194 -0.037405773997306824 -0.037544865161180496 -0.03715978376567364 -0.01909535564482212 -0.019263966009020805 -0.05099830776453018 -0.051042914390563965 -0.05090808868408203 -0.05118630640208721 -0.05125485174357892 -0.05130802467465401 -0.021982140839099884 -0.02172776311635971 -0.021835725754499435 -0.022205736488103867 -0.02245992049574852 -0.022344287484884262 -0.021947591565549374 -0.024320329539477825 -0.024573606438934803 -0.02446609176695347 -0.024097593501210213 -0.023844093084335327 -0.023959314450621605 -0.024354802444577217 -0.02532512322068214 -0.02557792421430349 -0.02547825593501329 -0.025118096731603146 -0.024972411803901196 -0.02537482418119907 -0.038166722282767296 -0.03792561590671539 -0.03802786208689213 -0.038378361612558365 -0.03861863724887371 -0.038509244099259377 -0.038133980706334114 -0.020971819758415222 -0.02071707416325808 -0.020817474462091923 -0.021180308423936367 -0.021326784044504166 -0.020921777933835983 -0.026353966444730755 -0.02662944234907627 -0.026511620730161667 -0.026136639527976513 -0.025983600877225396 -0.026392837055027485 -0.027182365767657757 -0.02701588999480009 -0.011445008218288425 -0.01119671203196049 -0.011604500468820335 -0.01151978969573975 -0.011351881083101034 -0.011151654180139305 -0.011804727371782064 -0.051196591928601265 -0.051230886951088905 -0.05144969001412392 -0.051398394629359245 -0.05151703767478466 -0.051285263150930405 -0.05135261081159115 -0.04919958673417568 -0.04933891072869301 -0.04915096424520016 -0.0489522460848093 -0.029136148281395435 -0.028961051255464554 -0.02917566429823637 -0.029598455876111984 -0.029490009881556034 -0.02944684773683548 -0.01110967434942722 -0.01141388481482863 -0.05033096857368946 -0.05050104111433029 -0.050436804071068764 -0.050197016447782516 -0.05002382956445217 -0.05009354464709759 -0.00998031860217452 -0.01015367638319731 -0.00987396715208888 -0.02813960798084736 -0.02829540427774191 -0.026949476450681686 -0.026723656803369522 -0.026800548657774925 -0.02694324590265751 -0.035244448110461235 -0.03495216369628906 -0.03504772670567036 -0.016586806625127792 -0.01641781907528639 -0.016555018723011017 -0.016301524825394154 -0.01774453930556774 -0.017913262359797955 -0.0110189663246274 -0.01103659812361002 -0.051035698503255844 -0.050909582525491714 -0.05086860805749893 -0.05121299810707569 -0.05126038379967213 -0.05112405866384506 -0.051182933151721954 -0.011181891430169344 -0.01110871322453022 -0.010978730861097574 -0.0508552361279726 -0.05072912015020847 -0.05081711523234844 -0.05066131241619586 -0.013545647729188204 -0.013272364623844624 -0.009865845553576946 -0.01016687788069248 -0.010304714553058151 -0.010047992691397667 -0.010230363346636297 -0.05193446017801762 -0.05192014388740063 -0.05187949165701866 -0.05180145241320133 -0.051778895780444145 -0.051792211830616 -0.05183795653283596 -0.01958971843123436 -0.01943022385239601 -0.02567367348819971 -0.02582680620253086 -0.02619717177003622 -0.026010630652308464 -0.026285246945917606 -0.026079350151121616 -0.037826672196388245 -0.03768781200051308 -0.03744592145085335 -0.03735032305121422 -0.023678913712501526 -0.023817257024347782 -0.023567470721900463 -0.024178272113204002 -0.02403243537992239 -0.024282007478177547 -0.024070757441222668 -0.025175669230520725 -0.02502244617789984 -0.025271568447351456 -0.024677195586264133 -0.02482295781373978 -0.025076000951230526 -0.02262523025274277 -0.022486739791929725 -0.022736961953341964 -0.022124593146145344 -0.022270943969488144 -0.02202052902430296 -0.02223255578428507 -0.026694162748754025 -0.026851817034184933 -0.020620467141270638 -0.020466121844947338 -0.020092124119400978 -0.02028060983866453 -0.02000321913510561 -0.020211201161146164 -0.038774607703089714 -0.038643985986709595 -0.03888014145195484 -0.03840371035039425 -0.038301464170217514 -0.05195879004895687 -0.05191941745579243 -0.05191921815276146 -0.02112219762057066 -0.02127647679299116 -0.021025698632001877 -0.02162357699126005 -0.0214771619066596 -0.021222597919404507 -0.011034545488655565 -0.011037319898605345 -0.01147839147597551 -0.011477883905172345 -0.019229989498853683 -0.01950734667479992 -0.019365508109331134 -0.027047935873270035 -0.02677382156252861 -0.026915468275547024 -0.03998675383627415 -0.039723435416817665 -0.04021214321255684 -0.049622444435954094 -0.04946242459118366 -0.049900325015187263 -0.04999558441340923 -0.04982509836554527 -0.05016877129673958 -0.050233008340001106 -0.011855766642838717 -0.01181177049875259 -0.012046671006828547 -0.011921911966055632 -0.012152055744081736 -0.011983300559222695 -0.02870987169444561 -0.02855538297444582 -0.02841976564377546 -0.028878279030323025 -0.028680848889052864 -0.02898487355560064 -0.01359128952026367 -0.013420329429209229 -0.013303546234965321 -0.013330813031643626 -0.03582819737493992 -0.03599398024380207 -0.03571958839893341 -0.035446908324956894 -0.035612691193819046 -0.02281323540955782 -0.022951710037887096 -0.022705387324094772 -0.02330568432807922 -0.023167337290942665 -0.023413463495671746 -0.024327348917722702 -0.024151228368282318 -0.023797734640538692 -0.023936018347740173 -0.023690094240009785 -0.023321425542235374 -0.02345976885408163 -0.023105981759727 -0.022859739139676094 -0.022967481054365635 -0.019727876409888268 -0.01986700389534235 -0.02022248413413763 -0.02008348237723112 -0.02033070661127567 -0.01975590642541647 -0.01994439214468002 -0.01958878617733717 -0.01944960933178663 -0.01983616966754198 -0.023198792710900307 -0.023444880731403828 -0.02333712857216597 -0.02298324648290873 -0.022844756022095684 -0.023182972334325314 -0.02304456476122141 -0.023290719836950306 -0.022690467536449432 -0.022829027846455574 -0.022582678124308586 -0.02307527046650648 -0.02349129691720009 -0.023352998308837414 -0.023599020205438134 -0.02299905475229025 -0.023137512616813183 -0.022891292348504066 -0.02286064438521862 -0.022614316083490845 -0.022722125984728336 -0.02307622600346804 -0.023322359658777714 -0.023214587941765785 -0.02310686465352774 -0.04188291169703007 -0.0416568573564291 -0.041732460260391235 -0.042084649205207825 -0.04219176806509495 -0.02551677729934454 -0.025363554246723655 -0.025716028176248074 -0.02596099954098463 -0.025853734463453293 -0.02576565928757191 -0.02604998555034399 -0.025868360884487625 -0.02551714517176151 -0.02565500233322382 -0.02540987078100443 -0.040566712617874146 -0.04069551080465317 -0.040466632694005966 -0.041023410856723785 -0.04087316058576107 -0.04110098071396351 -0.023967372253537178 -0.023721487261354923 -0.023829101584851745 -0.024182558059692383 -0.024428234435617924 -0.024320662952959538 -0.025164635851979256 -0.025302493013441563 -0.024949834682047367 -0.02470437530428171 -0.024811798706650734 -0.023444064892828465 -0.02358234860002995 -0.02322850376367569 -0.022982275113463402 -0.023090090602636337 -0.023197938688099384 -0.025618883781135082 -0.025862769223749638 -0.025730559602379795 -0.02537934388965368 -0.025134083814918995 -0.025241414085030556 -0.02562447544187307 -0.021210720762610435 -0.0210719034075737 -0.021318795159459114 -0.020716768689453602 -0.020855719223618507 -0.020608658902347084 -0.021704329177737236 -0.021843090653419495 -0.021596373990178108 -0.02219758182764053 -0.02205896284431219 -0.022305498830974102 -0.010978878010064365 -0.01085232151672244 -0.011110302060842514 -0.010421620681881905 -0.010466154664754864 -0.010603991337120535 -0.022890456020832062 -0.023136678151786327 -0.023028894327580925 -0.02267479244619608 -0.022428378462791443 -0.022536258213222027 -0.0229211151599884 -0.022567760199308395 -0.022706311196088794 -0.023060347884893417 -0.022921950556337833 -0.023168147541582584 -0.02295259572565556 -0.047169268131256104 -0.047070691362023354 -0.04697529412806034 -0.020675756968557835 -0.020429796539247036 -0.02056322991847992 -0.020917297340929508 -0.021164247766137123 -0.021056140772998336 -0.041957711800932884 -0.04185505397617817 -0.04147793538868427 -0.041605522856116295 -0.041378818452358246 -0.04183157719671726 -0.02951783686876297 -0.029670819640159607 -0.02183662634342909 -0.0216886755079031 -0.022065410390496254 -0.022311926819384098 -0.02222928125411272 -0.04042373038828373 -0.04019840434193611 -0.0402843002229929 -0.04065260849893093 -0.040730178356170654 -0.023884234018623825 -0.02372071985155344 -0.023991892114281654 -0.02347469050437212 -0.02336687501519918 -0.02508774772286415 -0.025225714780390266 -0.024980378337204456 -0.025578188709914684 -0.02544040605425835 -0.025685510598123074 -0.02547092363238335 -0.025195171125233173 -0.043496377766132355 -0.043659936636686325 -0.04356534220278263 -0.04331918619573116 -0.043099088594317436 -0.04320045933127403 -0.043463971465826035 -0.0238449489697814 -0.023706650361418724 -0.024060143157839775 -0.024305864237248898 -0.024198300205171108 -0.02398313395678997 -0.024121367372572422 -0.023875552229583263 -0.02447455283254385 -0.02433648519217968 -0.0245820889249444 -0.024090764112770557 -0.025481009855866432 -0.025389887392520905 -0.024965541437268257 -0.025103540159761906 -0.02485815528780222 -0.02534880023449659 -0.022767619229853153 -0.023013882339000705 -0.02290604915469885 -0.022551951929926872 -0.02241333294659853 -0.022517397068440914 -0.02279830165207386 -0.03950763866305351 -0.03927544504404068 -0.03936668485403061 -0.04031662456691265 -0.04012334905564785 -0.04056759737432003 -0.02312162891030312 -0.023260058835148815 -0.023613781668245792 -0.02347551099956036 -0.02322942297905684 -0.025930508971214294 -0.02579272631555796 -0.02618770953267813 -0.02630622684955597 -0.02590000070631504 -0.024827594868838787 -0.024689527228474617 -0.025042424909770485 -0.025251940824091434 -0.02507297974079847 -0.039507487788796425 -0.039610790088772774 -0.03920518420636654 -0.03939668461680412 -0.02241979632526636 -0.022583667188882828 -0.0228299954906106 -0.022937767207622528 -0.022320428863167763 -0.02218189463019371 -0.021827279590070248 -0.02196598518639803 -0.021719319745898247 -0.022259064950048923 -0.02239771280437708 -0.022151196375489235 -0.022751910611987114 -0.02261340990662575 -0.022644126787781715 -0.04837837815284729 -0.04845834709703922 -0.04855606518685818 -0.022644986398518085 -0.02278344426304102 -0.02242925390601158 -0.02229064516723156 -0.022675644606351852 -0.022336244583129883 -0.022474804893136024 -0.0221204599365592 -0.021873841993510723 -0.021981753408908844 -0.022089708596467972 -0.022366976365447044 -0.017451507970690724 -0.017571249045431614 -0.01769773941487074 -0.02190459705889225 -0.022043244913220406 -0.021688629873096943 -0.02144185267388821 -0.021549868397414684 -0.021935295313596725 -0.040623631328344345 -0.04049516096711159 -0.040723901242017746 -0.020101338624954224 -0.02000604383647442 -0.0203615240752697 -0.020500474609434605 -0.020114299841225147 -0.02197524905204773 -0.02215208113193512 -0.022506422363221645 -0.02236790396273136 -0.0223985742777586 -0.02212138753384352 -0.03970468044281006 -0.03957509063184261 -0.03980579040944576 -0.024237715639173985 -0.0240742014721036 -0.024465532042086124 -0.024612715467810634 -0.024181841872632504 -0.020778713747859005 -0.020932992920279503 -0.020577858202159405 -0.020438856445252895 -0.020527761429548264 -0.020824918523430824 -0.022459020838141445 -0.02259749546647072 -0.02224335726350546 -0.02199680544435978 -0.022104577161371708 -0.02221253700554371 -0.04735247790813446 -0.04723193310201168 -0.04734648019075394 -0.0265928003937006 -0.02644387260079384 -0.026068154722452164 -0.026205861009657383 -0.02617537043988705 -0.026529967784881592 -0.026343426667153835 -0.026730366051197052 -0.026875623501837254 -0.02645058184862137 -0.02081462647765875 -0.02090665139257908 -0.02133377175778151 -0.02119501028209925 -0.020948059856891636 -0.04010795243084431 -0.039968522265553474 -0.03964723460376263 -0.039777135476469994 -0.03954629972577095 -0.039738474413752556 -0.03982892632484436 -0.03872033953666687 -0.03885122202336788 -0.03918466158211231 -0.03904370777308941 -0.02373643964529037 -0.023598160594701767 -0.023244373500347137 -0.023382811807096 -0.023352115415036675 -0.02024032734334469 -0.020424293354153633 -0.020778360776603222 -0.02063946332782507 -0.020886506885290146 -0.020670253783464435 -0.020392328500747684 -0.018254157155752182 -0.018020306713879105 -0.018197382800281048 -0.018395760096609592 -0.018161909654736515 -0.018479579128324986 -0.01864816714078188 -0.023659486323595047 -0.023521139286458492 -0.023874767124652863 -0.024012980051338673 -0.023628834635019302 -0.023905410431325436 -0.0411516185849905 -0.041279206052422523 -0.04095218889415264 -0.040823718532919884 -0.04092379845678806 -0.0240443367511034 -0.023906164802610874 -0.024151957593858242 -0.0235525444149971 -0.02369088027626276 -0.023936765268445015 -0.02341425698250532 -0.023275859653949738 -0.02362964395433664 -0.023767877370119095 -0.02366025652736425 -0.02338362205773592 -0.024535709992051125 -0.02467381488531828 -0.0250266520306468 -0.024888722226023674 -0.024919274263083935 -0.024596855044364926 -0.024458819068968296 -0.024105528369545937 -0.024243734776973724 -0.023997964337468147 -0.024213142693042755 -0.02287450712174177 -0.02273609396070242 -0.02248972747474909 -0.02238195575773716 -0.02353678643703461 -0.023398378863930706 -0.023752101697027683 -0.023890308104455475 -0.023786572739481926 -0.02350612543523312 -0.02188890054821968 -0.02175012044608593 -0.048216721042990685 -0.04832684248685837 -0.04820471815764904 -0.041557539254426956 -0.041407087817788124 -0.04117988795042038 -0.04108007065951824 -0.03858111426234245 -0.038447704166173935 -0.038813699036836624 -0.03890448249876499 -0.03911225125193596 -0.03898162953555584 -0.03931506909430027 -0.03944496996700764 -0.039083331823349 -0.03934386000037193 -0.039242371916770935 -0.02452765963971615 -0.02438182290643454 -0.02473494317382574 -0.024872910231351856 -0.024777011014521125 -0.024489386938512325 -0.02461267076432705 -0.0247506694868207 -0.02439765725284815 -0.024259485304355625 -0.024643237702548504 -0.02436706703156233 -0.024413343518972397 -0.02455150056630373 -0.024797006510198116 -0.024904398247599602 -0.05145248211920261 -0.05136699043214321 -0.05133678764104843 -0.05156653746962547 -0.051483601331710815 -0.051587188616395 -0.02343002706766129 -0.023568389005959034 -0.0238143177703023 -0.023921881802380085 -0.021773891523480415 -0.021920242346823215 -0.02156560868024826 -0.021426791325211525 -0.021523290313780308 -0.021812325343489647 -0.021133474074304104 -0.02099457662552595 -0.02134957816451788 -0.021488339640200138 -0.021102686412632465 -0.041330743581056595 -0.04118049331009388 -0.04148086719214916 -0.04177847318351269 -0.04170786216855049 -0.041557447984814644 -0.02176584955304861 -0.021627143025398254 -0.02127227745950222 -0.021411120891571045 -0.021380347199738026 -0.02165789809077978 -0.040237316861748695 -0.04036611504852772 -0.04003608971834183 -0.03990649990737438 -0.04000743478536606 -0.04026584513485432 -0.0401651356369257 -0.02147258818149567 -0.021611293777823448 -0.0212565278634429 -0.02104546781629324 -0.02150338888168335 -0.02139535453170538 -0.02122574578970671 -0.03397586569190025 -0.03392094187438488 -0.04939313791692257 -0.04934246838092804 -0.031193033792078495 -0.031496260315179825 -0.013839134480804205 -0.0141054131090641 -0.014092374593019485 -0.013596616685390469 -0.013406215701252219 -0.01369970245286822 -0.013877059798687695 -0.013574750162661076 -0.013404801953583956 -0.013135649729520079 -0.051563678309321404 -0.051652247086167336 -0.05146403796970844 -0.05147100239992142 -0.03232891112565994 -0.032046882435679436 -0.05055779963731766 -0.05070543847978115 -0.05043170042335987 -0.05054633505642414 -0.013296380639076236 -0.01304718852043152 -0.01354536460712552 -0.013444363605231045 -0.050226841121912 -0.05007027089595795 -0.049894943833351135 -0.01194687746465206 -0.012175086885690689 -0.0124397543258965 -0.012249461840838194 -0.051948195323348045 -0.05189698934555054 -0.03585575893521309 -0.03613754361867905 -0.04961249977350235 -0.04942211136221886 -0.04945283383131027 -0.04961753450334072 -0.04976680129766464 -0.049466872587800026 -0.00950403232127428 -0.009738195687532425 -0.00973707064986229 -0.05088246986269951 -0.05077354609966278 -0.05072988569736481 -0.05071046575903893 -0.0506015419960022 -0.01156755723059177 -0.0117584615945816 -0.011431433260440826 -0.011262157466262575 -0.011179342400282621 -0.0116963367909193 -0.01194055005908012 -0.03614872694015503 -0.036240123212337494 -0.0363924466073513 -0.036015456542372704 -0.03625917620956898 -0.051923561841249466 -0.051883989945054054 -0.051815589889883995 -0.051811445504426956 -0.051841722801327705 -0.05176917836070061 -0.012583425268530846 -0.012908929493278265 -0.012842076364904639 -0.012570215854793784 -0.01301008742302656 -0.013202502857893705 -0.009447105694562197 -0.00966760003939271 -0.009678955189883709 -0.009679005481302738 -0.0144150136038661 -0.014117114245891571 -0.013932686299085615 -0.01419311389327049 -0.050373850390315056 -0.050301261246204376 -0.012810390442609785 -0.01302763167768717 -0.012806277722120285 -0.012369807343930006 -0.012378422543406487 -0.01257734792307019 -0.012366733979433775 -0.013527098577469584 -0.01329943770542741 -0.013251179829239845 -0.013255292549729344 -0.037667416036129 -0.03742529079318047 -0.03730659931898118 -0.03743482381105423 -0.037163544446229935 -0.030367753468453884 -0.030092328786849976 -0.030527206137776375 -0.05072786845266819 -0.05081376060843468 -0.051028236746788025 -0.05094226449728012 -0.05098085105419159 -0.01974866259843111 -0.019495798274874687 -0.019569124095141888 -0.01937226578593254 -0.01952358242124319 -0.019220511429011822 -0.026755796745419506 -0.02705076336860657 -0.026900270953774456 -0.026782002300024036 -0.02670747879892588 -0.026530780829489235 -0.0270769689232111 -0.027075624093413356 -0.0272277407348156 -0.027344664558768276 -0.051014531403779984 -0.05117451027035713 -0.05108610913157463 -0.05117711424827576 -0.05105121619999409 -0.05097087100148201 -0.05091915465891361 -0.01560124196112156 -0.015444654505699875 -0.015393742825835945 -0.015864839777350426 -0.036538176238536835 -0.0366295725107193 -0.03691542334854603 -0.036769693717360497 -0.03703353554010391 -0.03690531104803085 -0.046474333852529526 -0.046250127255916595 -0.04663269408047199 -0.04668719880282879 -0.04999137669801712 -0.04988790489733219 -0.049724528566002846 -0.0497569814324379 -0.035186486318707466 -0.034894201904535294 -0.03529338352382183 -0.03516561910510063 -0.03542604111135006 -0.05008828081190586 -0.04996735416352749 -0.05025343969464302 -0.05030728317797184 -0.05042189918458462 -0.050175417214632034 -0.014273378532379869 -0.014379885047674179 -0.01410437235608697 -0.013786611147224905 -0.013893117662519215 -0.01373835327103734 -0.013658792246133086 -0.013918304815888405 -0.015002311207354065 -0.015087935607880354 -0.014940142165869474 -0.015184503979980949 -0.014692927245050665 -0.014598762150853869 -0.05028874613344669 -0.05015912093222141 -0.05013018473982811 -0.05044990219175816 -0.05044419504702091 -0.05057641491293907 -0.05196500197052956 -0.05191849730908871 -0.01296255411580205 -0.01281436299905181 -0.01040050480514765 -0.010143782943487167 -0.051732705906033516 -0.05179176665842533 -0.020354051142930984 -0.02007149904966354 -0.020225269719958305 -0.019957267679274082 -0.019828486256301403 -0.0259380079805851 -0.026217913255095482 -0.02606554701924324 -0.02633094973862171 -0.02645848877727985 -0.036890508607029915 -0.03660588338971138 -0.049503838643431664 -0.049670279026031494 -0.04974129609763622 -0.04961037263274193 -0.01415438437834382 -0.014027781318873164 -0.013911143876612185 -0.014406651258468624 -0.01453365013003349 -0.01415106886997819 -0.011387270409613844 -0.011216862127184864 -0.011333961505442854 -0.01108187064528465 -0.045958755537867546 -0.04602690972387791 -0.04579460993409157 -0.04558802768588066 -0.04573298059403896 -0.05146881006658077 -0.051469964906573296 -0.051370324566960335 -0.05135016702115536 -0.05125000700354576 -0.04202962480485439 -0.041857680305838585 -0.04200770705938339 -0.04234449565410614 -0.04241940192878246 -0.04990336298942566 -0.05003928765654564 -0.04978920705616474 -0.04983234591782093 -0.04490289464592934 -0.044791070744395256 -0.044588711112737656 -0.044436607509851456 -0.04455491714179516 -0.044671252369880676 -0.01441349321976304 -0.0146690784022212 -0.014814483001828194 -0.0434257835149765 -0.043344900012016296 -0.04348755441606045 -0.043253904208540916 -0.049206655472517014 -0.049233656376600266 -0.048955392092466354 -0.0488874576985836 -0.04903238266706467 -0.04884029179811478 -0.05192488431930542 -0.05188551172614098 -0.04169968143105507 -0.04167776368558407 -0.041352784261107445 -0.04132083058357239 -0.04152318648993969 -0.041324252262711525 -0.04783616587519646 -0.04761527292430401 -0.047471215948462486 -0.04756526090204716 -0.047639504075050354 -0.047764239832758904 -0.04774070531129837 -0.04796108044683933 -0.04808245413005352 -0.04800977557897568 -0.04793570004403591 -0.04781343601644039 -0.01612556353211403 -0.01640915870666504 -0.016564522869884968 -0.016657664440572262 -0.04745289497077465 -0.04769054241478443 -0.0475409422069788 -0.0478136595338583 -0.04786284267902374 -0.047739921137690544 -0.028448027558624744 -0.028190897777676582 -0.02829721663147211 -0.02858369424939156 -0.02829899732023478 -0.019744700752198696 -0.01948100421577692 -0.019681026227772236 -0.01929524727165699 -0.019428161904215813 -0.04300003685057163 -0.042891375720500946 -0.042642416432499886 -0.042751533910632133 -0.04811851121485233 -0.04788687080144882 -0.048033829778432846 -0.047762924805283546 -0.047714175656437874 -0.04783749021589756 -0.04803909361362457 -0.04828416183590889 -0.04818644374608994 -0.047915976494550705 -0.04800101928412914 -0.04809523560106754 -0.04345633089542389 -0.04360532388091087 -0.04385692812502384 -0.04375704936683178 -0.0439633633941412 -0.043803777545690536 -0.04754444397985935 -0.0472862645983696 -0.04738166183233262 -0.04766838997602463 -0.04760846123099328 -0.04749146476387978 -0.018186405301094055 -0.017910046502947807 -0.018095907755196095 -0.017755979672074314 -0.0176991019397974 -0.030104374513030052 -0.029845541343092915 -0.02965474501252174 -0.029589366167783734 -0.04707208834588528 -0.04683549143373966 -0.04698544926941395 -0.046701304614543915 -0.046657050028443336 -0.04848179966211319 -0.04870282858610153 -0.04855733551084995 -0.048823995515704155 -0.04886462725698948 -0.026541201397776604 -0.026600482873618603 -0.02680241595953703 -0.026851704344153404 -0.02696862816810608 -0.02702633570879698 -0.01703343726694584 -0.017336619086563584 -0.01721012871712446 -0.01686236634850502 -0.01694170106202364 -0.01705658994615078 -0.04717503488063812 -0.04695998504757881 -0.04682610370218754 -0.020992792211472988 -0.02071317657828331 -0.02086694072932005 -0.025304604321718216 -0.025582002475857735 -0.02542943321168423 -0.015538862906396389 -0.01587670855224133 -0.015248834155499935 -0.015533903613686565 -0.009575773030519485 -0.009749130811542273 -0.04224786348640919 -0.04253634810447693 -0.04214925318956376 -0.043803395703434944 -0.04409097880125046 -0.043706875294446945 -0.0421735942363739 -0.04224758222699165 -0.04254193603992462 -0.04196104407310486 -0.041731154546141624 -0.04206177406013012 -0.017994651570916176 -0.018253407441079617 -0.017980455420911312 -0.01772035751491785 -0.017993309535086155 -0.028268208727240562 -0.028012309223413467 -0.028282733634114265 -0.028535247780382633 -0.028264823369681835 -0.041556866839528084 -0.04126264341175556 -0.04165574908256531 -0.04192237742245197 -0.04218185693025589 -0.04184557870030403 -0.040582820773124695 -0.040803372859954834 -0.04426959343254566 -0.044005563482642174 -0.04433780536055565 -0.043189043179154396 -0.04312719218432903 -0.04283520765602589 -0.03363705985248089 -0.033317143097519875 -0.033511970192193985 -0.03383613005280495 -0.033641302958130836 -0.04312687925994396 -0.04284615069627762 -0.043223729357123375 -0.043437955901026726 -0.043695272877812386 -0.04338574782013893 -0.04058581218123436 -0.04060312174260616 -0.044661834836006165 -0.04437718354165554 -0.0447367187589407 -0.04467744007706642 -0.04440001957118511 -0.04471931606531143 -0.035526879131793976 -0.0353783555328846 -0.035222698003053665 -0.0355592742562294 -0.03571493178606033 -0.009602344129234552 -0.009496044367551804 -0.05193205922842026 -0.05195198208093643 -0.03789847902953625 -0.037759244441986084 -0.037605734542012215 -0.03792479820549488 -0.03807830810546875 -0.020048066973686215 -0.019792791455984116 -0.01989814080297947 -0.02033061906695366 -0.02624112460762262 -0.02649340312927961 -0.02638907544314861 -0.02596121933311224 -0.03456973657011986 -0.034333182498812675 -0.034518888220191 -0.04015408828854561 -0.04012865759432316 -0.04030522145330906 -0.03997713141143322 -0.03979628160595894 -0.03975340351462364 -0.03957216069102287 -0.039753010496497154 -0.02752560004591942 -0.02727388869971037 -0.02744425926357508 -0.02710767649114132 -0.0271907988935709 -0.0274400869384408 -0.02727565634995699 -0.011833330150693655 -0.011669954750686884 -0.012063473928719759 -0.01000403193756938 -0.010195942595601085 -0.010152649600058796 -0.00973533932119608 -0.009969758335500956 -0.010221324395388365 -0.01041323505342007 -0.009705837815999985 -0.009480438195168972 -0.011017603799700734 -0.011075759306550026 -0.011348727624863384 -0.0114586753770709 -0.011584211606532335 -0.01124290749430656 -0.0352997500449419 -0.03548780269920826 -0.034594420343637466 -0.03438754938542843 -0.034496234729886055 -0.013546453788876535 -0.013398435432463884 -0.013499593362212181 -0.013770682737231255 -0.029243584722280502 -0.029053451493382454 -0.029239121824502945 -0.02957145683467388 -0.029633356258273125 -0.029434249736368656 -0.029638350941240788 -0.01699854712933302 -0.017192760482430455 -0.017003134824335575 -0.01668858248740435 -0.01661407481878996 -0.016803779639303684 -0.016608932986855507 -0.050564827397465706 -0.05052978359162807 -0.050455279648303986 -0.05065588280558586 -0.04004678875207901 -0.039835985749959946 -0.03954737074673176 -0.03961942903697491 -0.05050225369632244 -0.05055609717965126 -0.05073702707886696 -0.05062272772192955 -0.05078452266752719 -0.050885098055005074 -0.018941261805593967 -0.019163350574672222 -0.019016461446881294 -0.027334697544574734 -0.02711567189544439 -0.027260786853730675 -0.00965205766260624 -0.009490154683589935 -0.009408802725374699 -0.05028455890715122 -0.050106605514883995 -0.05004242993891239 -0.05021306872367859 -0.03327289223670959 -0.03315665200352669 -0.03301038593053818 -0.028124552220106125 -0.028397026471793655 -0.028506808914244175 -0.02867766097187996 -0.02840021438896656 -0.033291976898908615 -0.0330294705927372 -0.050353290513157845 -0.05031824670732021 -0.05005859024822712 -0.049976740032434464 -0.050134407356381416 -0.01493992982432246 -0.014737647026777264 -0.014493470080196854 -0.012708891648799181 -0.012977853883057834 -0.01300861919298768 -0.012768991757184264 -0.013063502497971054 -0.050630588084459305 -0.05055564269423485 -0.050695907324552536 -0.05084849148988724 -0.050705092027783394 -0.05081716738641262 -0.05075140669941902 -0.04301040060818195 -0.042712604627013206 -0.042524849995970726 -0.0426251795142889 -0.04287413880228996 -0.04287527315318584 -0.042646752670407295 -0.04275989159941673 -0.016157299280166626 -0.016360982321202755 -0.01655068714171648 -0.030166549608111385 -0.02989449538290501 -0.029695388861000538 -0.04710626229643822 -0.04690004512667656 -0.04674168489873409 -0.04841898754239082 -0.04863390885293484 -0.0487788338214159 -0.01528152171522379 -0.01542931515723467 -0.015411501284688711 -0.0339594054967165 -0.033857569098472595 -0.03424992226064205 -0.034381186589598656 -0.0342098381370306 -0.03403733670711517 -0.015786818228662014 -0.01549678947776556 -0.028865378350019455 -0.028860915452241898 -0.028540396131575108 -0.028485121205449104 -0.02867784909904003 -0.028490127995610237 -0.04522715322673321 -0.04540091194212437 -0.04567096009850502 -0.04556465707719326 -0.04575631022453308 -0.045920055359601974 -0.045633262023329735 -0.04588235728442669 -0.04533354565501213 -0.045048344880342484 -0.04486033320426941 -0.045402346178889275 -0.045582061633467674 -0.045292336493730545 -0.04554085247218609 -0.05106540210545063 -0.051178859546780586 -0.0512847863137722 -0.05126543529331685 -0.05128374882042408 -0.05116446875035763 -0.01636583637446165 -0.01647449191659689 -0.0166266318410635 -0.028437361121177673 -0.028315788134932518 -0.02820475772023201 -0.04258730448782444 -0.04237307608127594 -0.0424510408192873 -0.02828259859234095 -0.028015559539198875 -0.04362117685377598 -0.043819108977913857 -0.01738457102328539 -0.017389158718287945 -0.017715904861688614 -0.01777214463800192 -0.01759299822151661 -0.01778417360037565 -0.04286905378103256 -0.04307101294398308 -0.042961347848176956 -0.0333816334605217 -0.03358070366084576 -0.041074374690651894 -0.04117137938737869 -0.041282808408141136 -0.04800630360841751 -0.04793268069624901 -0.047835271805524826 -0.03699045814573765 -0.03677457384765148 -0.03688623383641243 -0.032702088356018066 -0.0325919296592474 -0.03249446488916874 -0.018248913809657097 -0.01797461975365877 -0.04875403642654419 -0.048922549933195114 -0.04884535074234009 -0.03766861371695995 -0.037848442792892456 -0.040476296097040176 -0.040450865402817726 -0.040712419897317886 -0.040938325226306915 -0.04084784537553787 -0.03146736323833466 -0.03132654167711735 -0.03186960704624653 -0.03179167956113815 -0.03199678845703602 -0.03174158558249474 -0.03148701600730419 -0.031199153512716293 -0.03161419741809368 -0.04588385671377182 -0.04581873305141926 -0.04614122398197651 -0.046269647777080536 -0.04612918384373188 -0.04637674801051617 -0.04599095694720745 -0.0494826789945364 -0.04956212639808655 -0.049275876954197884 -0.04917156882584095 -0.0492883063852787 -0.04908202774822712 -0.009693974629044533 -0.009930883534252644 -0.009736732579767704 -0.009739442728459835 -0.009875917341560124 -0.010024600196629761 -0.010101024992763996 -0.010237499605864285 -0.02800194825977087 -0.02813737280666828 -0.028266029432415962 -0.028458757326006886 -0.02839450258761644 -0.05190994590520859 -0.051894769072532654 -0.051866449415683746 -0.05184764787554741 -0.05186738073825836 -0.05190135911107063 -0.051806943491101265 -0.051772965118288994 -0.018238034099340435 -0.018100363202393055 -0.0179695775732398 -0.01779043115675449 -0.012461193837225434 -0.01225281041115522 -0.01268552429974079 -0.012367979157716036 -0.012600889895111319 -0.012496817857027056 -0.050981555134058 -0.05114153400063515 -0.05108505673706532 -0.05095023103058338 -0.050903916358947754 -0.04429794289171696 -0.04451407864689827 -0.044063519686460495 -0.033865462988615036 -0.034132618457078934 -0.03371270373463631 -0.03418346680700779 -0.03430366516113281 -0.03410310111939907 -0.03385566733777523 -0.03358546830713749 -0.04816560260951519 -0.04823056422173977 -0.048345621675252914 -0.0479801781475544 -0.029286262579262257 -0.029039381071925163 -0.02915953379124403 -0.051936766132712364 -0.05195405147969723 -0.051968954503536224 -0.015854707919061184 -0.016117737628519535 -0.01580147072672844 -0.016014156863093376 -0.046441905200481415 -0.04619300737977028 -0.03609743155539036 -0.0357991773635149 -0.03625356964766979 -0.05066554248332977 -0.05071592703461647 -0.0505153052508831 -0.05059432238340378 -0.05062801204621792 -0.05075741373002529 -0.050479061901569366 -0.01857667975127697 -0.018809044733643535 -0.0186121528968215 -0.01882908679544926 -0.01899760589003563 -0.045600539073348045 -0.04538865201175213 -0.04520448110997677 -0.03567538224160671 -0.03558584488928318 -0.03571360930800438 -0.03598800115287304 -0.01880965381860733 -0.0189961651340127 -0.04986296780407429 -0.05003443732857704 -0.05007103085517883 -0.027464373968541622 -0.02727968618273735 -0.01056623924523592 -0.01063491404056549 -0.010898992419242855 -0.010745988227427006 -0.011068268213421106 -0.01087581180036068 -0.012062564957886934 -0.012329804711043835 -0.01197785418480635 -0.012343014124780895 -0.012476102914661169 -0.050275616347789764 -0.05026415176689625 -0.050160039216279984 -0.05001905933022499 -0.05016216263175011 -0.050004495307803154 -0.00948399119079113 -0.009671746287494898 -0.009687361773103476 -0.013419626746326685 -0.013548513874411585 -0.01370376767590642 -0.013668198138475415 -0.013459589332342144 -0.01387497503310442 -0.01060742372646928 -0.010825715493410826 -0.01100448193028569 -0.01091489242389798 -0.011020497418940066 -0.010663273744285105 -0.010768466163426634 -0.010460997465997934 -0.05147442780435085 -0.05154173634946346 -0.05145945027470589 -0.05133892968297005 -0.05138175189495087 -0.05127582512795925 -0.05122261308133602 -0.01532369386404753 -0.015167106408625845 -0.014923487789928915 -0.015175425447523596 -0.014895448461174965 -0.01497381646186113 -0.014004684053361416 -0.014258739538490769 -0.014377892017364498 -0.01419912977144122 -0.01392952725291252 -0.01396512845531106 -0.010604447685182095 -0.010608232114464045 -0.0109893255867064 -0.011052513029426336 -0.05140021815896034 -0.05128100328147411 -0.051209425553679466 -0.05128360725939274 -0.05139930173754692 -0.04131495580077171 -0.04112549312412739 -0.04086722433567047 -0.04101458191871643 -0.04124434478580952 -0.012574235443025824 -0.012791476678103209 -0.012619673740118739 -0.0128517160192132 -0.01237951498478651 -0.01235500629991293 -0.020581506192684174 -0.020901842042803764 -0.020427735522389412 -0.025712581351399425 -0.02539466880261898 -0.025864947587251663 -0.05192361772060394 -0.05195193737745286 -0.0519433505833149 -0.02922218944877386 -0.0290247593075037 -0.02951235231012106 -0.02937154285609722 -0.029562339186668396 -0.029085097834467888 -0.051895078271627426 -0.051810408011078835 -0.05178079009056091 -0.051849573850631714 -0.05190072953701019 -0.05194249376654625 -0.02826016861945391 -0.02832685969769955 -0.02847464103251696 -0.01800125744193792 -0.017933434806764126 -0.017783017829060555 -0.02978550549596548 -0.029579860158264637 -0.029651707038283345 -0.05162465386092663 -0.05160967633128166 -0.05175313167273998 -0.051720187067985535 -0.05178072489798069 -0.05171242728829384 -0.05162950977683067 -0.01005629636347294 -0.010251028928905725 -0.015601679682731632 -0.015334232710301876 -0.015548442490398884 -0.015340943355113271 -0.01515246229246259 -0.015697759576141834 -0.04659528471529484 -0.04680498316884041 -0.04657320864498615 -0.04678607359528542 -0.04693234898149967 -0.018725115805864334 -0.019009596668183804 -0.019160913303494453 -0.01901907473802567 -0.027547226287424564 -0.02726022619754076 -0.02711575198918581 -0.027257398702204224 -0.05183914117515088 -0.05178102478384972 -0.051712315529584885 -0.017674320377409455 -0.017460753209888935 -0.01764432433992624 -0.017859724350273606 -0.01798425242304802 -0.017855268903076645 -0.04892086423933506 -0.04904833063483238 -0.04892057552933693 -0.04875906556844711 -0.04865420423448086 -0.04871419258415699 -0.04851246252655983 -0.046594416722655296 -0.04644135199487209 -0.04659740440547466 -0.04677285812795162 -0.04687856137752533 -0.046810250729322433 -0.04702284187078476 -0.011771004647016525 -0.01205721637234092 -0.011914717499166724 -0.016700420528650284 -0.01688285265117884 -0.016693225130438805 -0.016451914794743065 -0.01633914187550545 -0.016203244216740135 -0.016445274464786053 -0.016196603886783123 -0.051883697509765625 -0.051881859079003334 -0.05192221514880657 -0.051795560866594315 -0.05178679898381233 -0.0415143147110939 -0.041722169145941734 -0.04147044010460377 -0.04128788597881794 -0.014892169274389744 -0.015141038224101065 -0.014921596273779869 -0.015328151173889634 -0.01517607131972909 -0.029447932727634907 -0.02928260527551174 -0.029468270018696785 -0.029704107902944088 -0.02979506179690361 -0.030001874081790447 -0.029724414460361004 -0.030022180639207363 -0.03065439593046904 -0.030815375037491325 -0.03536938689649105 -0.03559940308332443 -0.035819338634610176 -0.03563822992146015 -0.014716860372573134 -0.014526035636663435 -0.014419752638787031 -0.01489052129909396 -0.014641652349382639 -0.01438393862918019 -0.0508063118904829 -0.050894226878881454 -0.04054589569568634 -0.040562704205513 -0.040917444974184036 -0.040954336524009705 -0.040801556780934334 -0.04099475406110287 -0.04069153964519501 -0.051194917410612106 -0.05127612128853798 -0.05105152912437916 -0.0509991068392992 -0.051107510924339294 -0.051222825422883034 -0.05117040313780308 -0.03344188630580902 -0.03328738547861576 -0.03340429067611694 -0.03364313766360283 -0.014847490936517715 -0.01508442312479019 -0.015230693388730291 -0.015092821791768074 -0.04031669534742832 -0.04059474542737007 -0.040219713002443314 -0.04583917558193207 -0.045610398054122925 -0.045921504497528076 -0.04329846613109112 -0.0430783685296774 -0.04337428696453571 -0.04518662020564079 -0.04542812705039978 -0.04511614143848419 -0.045521438121795654 -0.04566892795264721 -0.045486656948924065 -0.04207809083163738 -0.04231134429574013 -0.04200248792767525 -0.021851787343621254 -0.021557698026299477 -0.02193443290889263 -0.02445051167160273 -0.024743202142417434 -0.024368202313780785 -0.01123921340331435 -0.01100891316309571 -0.011427080724388361 -0.014276391360908745 -0.01412431290373206 -0.014362957328557965 -0.014393028803169724 -0.014655657112598416 -0.05149546638131142 -0.05156269110739231 -0.05166544206440449 -0.051665887236595154 -0.0110493996180594 -0.010926548857241869 -0.010546580422669649 -0.01063316082581878 -0.05162142403423786 -0.051725564524531364 -0.05174875259399414 -0.05170300789177418 -0.04965786635875702 -0.04975312575697899 -0.04958974942564964 -0.0494380909949541 -0.049486713483929634 -0.04955868609249592 -0.05196492001414299 -0.0519273579120636 -0.009419146459549665 -0.009638749063014984 -0.040461208671331406 -0.04024102911353111 -0.05179601348936558 -0.05178704857826233 -0.05185873992741108 -0.051843591034412384 -0.05188210867345333 -0.05190359801054001 -0.05194186605513096 -0.04095067083835602 -0.0407614391297102 -0.0406924020498991 -0.04049166291952133 -0.04052804969251156 -0.0409036111086607 -0.04650749824941158 -0.046617427840828896 -0.04648324102163315 -0.046270012855529785 -0.04899637959897518 -0.04889775626361371 -0.049018923193216324 -0.04917711205780506 -0.03223978728055954 -0.03242671489715576 -0.03218755125999451 -0.032059529796242714 -0.0504206120967865 -0.05048593133687973 -0.05020172894001007 -0.05010799318552017 -0.05025716498494148 -0.05028357915580273 -0.010503032710403206 -0.010404651518911125 -0.01028553768992424 -0.010779761709272865 -0.0108211156912148 -0.010569497011601925 -0.01035200199112296 -0.02892373688519001 -0.02879483625292778 -0.029183154925704002 -0.029343451373279095 -0.029182090424001217 -0.016816983930766582 -0.01691165380179882 -0.01705732475966215 -0.01673247758299112 -0.016887841746211052 -0.017070304602384567 -0.029678105376660824 -0.029790647327899933 -0.02987517137080431 -0.029427828267216686 -0.029302231036126614 -0.029467984102666378 -0.017518618144094944 -0.017276660539209843 -0.01739395223557949 -0.017627247609198093 -0.017473180778324604 -0.01728964038193226 -0.017181990668177605 -0.03583519347012043 -0.03585424646735191 -0.03563548997044563 -0.035479191690683365 -0.03579670004546642 -0.03561517409980297 -0.010163122788071632 -0.010064741596579552 -0.009770390577614307 -0.009956780355423689 -0.009722616989165545 -0.009550680872052908 -0.050204457715153694 -0.05034921504557133 -0.05045667849481106 -0.05038545839488506 -0.05024263449013233 -0.05012026056647301 -0.011154965963214636 -0.01101607223972678 -0.010895087383687496 -0.01087743928655982 -0.011135419830679895 -0.014445365872234104 -0.014704750850796694 -0.014498490374535319 -0.05001635104417801 -0.04996820352971554 -0.04974972642958164 -0.049904027953743935 -0.04974072240293026 -0.05194886773824692 -0.05194702930748463 -0.051968518644571304 -0.018678145483136177 -0.018825034610927105 -0.018558169715106487 -0.01844194252043962 -0.027594209648668766 -0.02744909469038248 -0.02771241683512926 -0.027826813980937004 -0.051056984812021255 -0.050983915105462074 -0.05083281360566616 -0.009545291773974895 -0.044682616367936134 -0.044873714447021484 -0.04476864077150822 -0.044996799901127815 -0.05170507915318012 -0.051765330135822296 -0.05183373019099236 -0.05183939635753632 -0.0251992242410779 -0.02492334041744471 -0.02518128976225853 -0.025046654976904396 -0.02486745174974203 -0.024762071669101715 -0.024761136621236805 -0.02458193339407444 -0.021098807454109192 -0.02137658651918173 -0.021116807125508785 -0.021252571605145935 -0.021432796493172646 -0.02153881173580885 -0.021539698354899883 -0.021719923242926598 -0.015735365450382233 -0.015555674210190775 -0.016013904474675655 -0.01599917653948069 -0.015934591181576252 -0.014056651387363669 -0.01404524315148592 -0.013975447509437794 -0.013774551451206204 -0.013626568485051395 -0.01377564063295722 -0.050521692261099815 -0.05035288259387016 -0.05054759234189987 -0.050424372777342796 -0.05029456689953804 -0.013227041345089674 -0.01327746221795678 -0.013565205503255129 -0.013630541041493416 -0.01345058949664235 -0.05081256479024887 -0.05076795816421509 -0.019777544774115086 -0.020072980783879757 -0.019805611111223698 -0.020029244013130665 -0.019906572997570038 -0.026508417911827564 -0.026216189377009865 -0.02648072503507137 -0.02625950891524553 -0.02638082671910524 -0.030221274122595787 -0.030476907268166542 -0.030348461121320724 -0.03015062678605318 -0.030365643091499805 -0.047345710918307304 -0.04756554961204529 -0.047207267954945564 -0.048706578090786934 -0.0485233087092638 -0.04882223159074783 -0.045886723324656487 -0.04531257040798664 -0.04508954472839832 -0.045460060238838196 -0.018592295236885544 -0.018496258184313774 -0.01881717797368765 -0.01888625416904688 -0.018623137846589085 -0.018435038626194 -0.027678497135639194 -0.027773083187639713 -0.02745648566633463 -0.027388669550418854 -0.027648181654512882 -0.02783350832760334 -0.015670505817979574 -0.01591327041387558 -0.015769097488373515 -0.016018814407289028 -0.015981700271368027 -0.016170954331755638 -0.016223730519413948 -0.03293285146355629 -0.033193591982126236 -0.03306029364466667 -0.03283538669347763 -0.03289833851158619 -0.03312910161912441 -0.033254191279411316 -0.042745037004351616 -0.04246818833053112 -0.042635371908545494 -0.042480217292904854 -0.04235620051622391 -0.042354511097073555 -0.042199356481432915 -0.028774479404091835 -0.0287349633872509 -0.028663448989391327 -0.042701924219727516 -0.04293743520975113 -0.042779888957738876 -0.04288901761174202 -0.043003637343645096 -0.043035442009568214 -0.04314457066357136 -0.048204630613327026 -0.048378586769104004 -0.04827766865491867 -0.048107221722602844 -0.04836341366171837 -0.03711802326142788 -0.037411874160170555 -0.037172649055719376 -0.03722968325018883 -0.03734718821942806 -0.037474753335118294 -0.03755110874772072 -0.02927925158292055 -0.029390673153102398 -0.029032370075583458 -0.029251424595713615 -0.0290368115529418 -0.012042476795613766 -0.01209234306588769 -0.011789758689701554 -0.01167981093749404 -0.011822751723229885 -0.012029736768454315 -0.01583962235599756 -0.015556475147604939 -0.015917303040623665 -0.015868459828197956 -0.0156952915713191 -0.01603007595986128 -0.03038327395915985 -0.030685527250170704 -0.030280773527920246 -0.030536406673491 -0.03018981963396072 -0.043615009635686874 -0.04723106138408185 -0.04743571765720844 -0.047162750735878944 -0.0473144818097353 -0.04132902808487415 -0.041114892810583115 -0.04097946733236313 -0.04134132154285908 -0.03473374806344509 -0.035027967765927315 -0.034779954701662064 -0.03484243340790272 -0.03496569208800793 -0.03510501980781555 -0.03517649136483669 -0.04805426299571991 -0.0483076348900795 -0.047982336953282356 -0.04821801371872425 -0.04790809378027916 -0.042791979387402534 -0.042645711451768875 -0.04283495433628559 -0.0426569078117609 -0.04246755689382554 -0.04241338558495045 -0.0475202277302742 -0.047255491837859154 -0.04759295843541622 -0.047351064160466194 -0.04766703397035599 -0.03608686290681362 -0.035982646048069 -0.035860395058989525 -0.03637582063674927 -0.043848222121596336 -0.043940119445323944 -0.04420078359544277 -0.04404783435165882 -0.043963830918073654 -0.043718984350562096 -0.04111373610794544 -0.041235966607928276 -0.04096420481801033 -0.04126651585102081 -0.041394105181097984 -0.04151308722794056 -0.04278586804866791 -0.04263954795897007 -0.04241666942834854 -0.04263959266245365 -0.04283525235950947 -0.04432850889861584 -0.04418576881289482 -0.04396475851535797 -0.044176673516631126 -0.04436808824539185 -0.043991444632411 -0.04403102397918701 -0.04426748305559158 -0.04414840042591095 -0.04437245801091194 -0.04417596198618412 -0.04391529783606529 -0.04121151752769947 -0.041065897792577744 -0.04083419218659401 -0.04105060361325741 -0.041247349232435226 -0.043937087059020996 -0.0437999963760376 -0.04397168383002281 -0.04383387602865696 -0.043669285252690315 -0.04360080882906914 -0.01847909577190876 -0.018460405990481377 -0.01859816163778305 -0.042425379157066345 -0.04236105270683765 -0.04259117878973484 -0.04273813031613827 -0.042959656566381454 -0.04273802973330021 -0.04254183545708656 -0.040526727214455605 -0.04021424241364002 -0.040603430941700935 -0.0407261960208416 -0.04051295109093189 -0.040341876447200775 -0.04258663579821587 -0.042733488604426384 -0.042542124167084694 -0.04272771254181862 -0.04294462502002717 -0.027789440937340256 -0.02780721615999937 -0.027672717347741127 -0.041539767757058144 -0.04163024574518204 -0.04413905180990696 -0.044282516464591026 -0.04449853673577309 -0.04429198242723942 -0.04410044476389885 -0.03957645036280155 -0.039274146780371666 -0.03969160281121731 -0.039814140647649765 -0.03948574513196945 -0.04510075785219669 -0.0353190116584301 -0.03366127610206604 -0.03380504250526428 -0.033603791147470474 -0.034055475145578384 -0.03396831639111042 -0.03377580642700195 -0.033556416630744934 -0.05035805515944958 -0.05028834007680416 -0.05058256350457668 -0.05052812770009041 -0.05044726841151714 -0.05059593543410301 -0.03560900688171387 -0.03588608279824257 -0.03540526703000069 -0.03550083003938198 -0.0357735101133585 -0.01180831342935562 -0.01165153691545129 -0.01167854992672801 -0.010881176684051756 -0.01066064788028598 -0.045217663049697876 -0.04538070783019066 -0.04533485881984234 -0.04508389160037041 -0.04550129733979702 -0.04828052408993244 -0.04809910990297794 -0.048340512439608574 -0.048187049105763435 -0.010576204396784306 -0.010621415451169014 -0.01088549382984638 -0.010957297869026661 -0.01079294877126813 -0.01412571826949716 -0.01440123096108437 -0.014046157244592905 -0.014241249300539495 -0.03047744743525982 -0.030276917852461338 -0.030411661602556705 -0.03051965218037367 -0.030248895287513733 -0.031257277354598045 -0.03154056891798973 -0.01055784476920962 -0.010392655618488785 -0.010326263960450884 -0.01046908041462302 -0.010701736435294151 -0.01084904884919524 -0.010465779341757294 -0.010245265439152714 -0.010223861318081614 -0.05194966122508049 -0.05194818042218685 -0.051922572776675224 -0.051974475383758545 -0.012881330214440826 -0.012856234796345236 -0.01266387663781643 -0.013169030658900741 -0.012976672500371935 -0.013324284460395575 -0.0132089932449162 -0.013674819841980934 -0.013858303893357515 -0.013413399457931515 -0.01355709275230765 -0.01471967156976461 -0.01450249971821904 -0.01067761471495032 -0.01075035147368908 -0.010398512706160545 -0.010539129842072725 -0.010292161256074905 -0.01044077891856432 -0.01066245790570974 -0.030411439947783947 -0.030125634744763374 -0.04631267674267292 -0.046139070764184 -0.046376556158065796 -0.04620900936424732 -0.046040238812565804 -0.046012964099645615 -0.046403830870985985 -0.03204902447760105 -0.03175082989037037 -0.04914744198322296 -0.04927250184118748 -0.0490917693823576 -0.049220798537135124 -0.04936450161039829 -0.049069736152887344 -0.049437202513217926 -0.047540703788399696 -0.0289046186953783 -0.02914193458855152 -0.02969496324658394 -0.029798738658428192 -0.02960167266428471 -0.029476075433194637 -0.029477139934897423 -0.03664590232074261 -0.036384521052241325 -0.03678307123482227 -0.03628384508192539 -0.036168958991765976 -0.036415936425328255 -0.03665306232869625 -0.04796545393764973 -0.04791341908276082 -0.04777029901742935 -0.01486277673393488 -0.014927236828953031 -0.043342482298612595 -0.033009493723511696 -0.03314356319606304 -0.03326069563627243 -0.050511881709098816 -0.05061771720647812 -0.05074416846036911 -0.0420041773468256 -0.021933546289801598 -0.04944022186100483 -0.0496049840003252 -0.049508120864629745 -0.024369137361645695 -0.01252249302342534 -0.012271120212972164 -0.012127407360821966 -0.012277377769351006 -0.01252770982682705 -0.012463776394724846 -0.04996837116777897 -0.050006547942757607 -0.049781231209635735 -0.04969587177038193 -0.04498687572777271 -0.04485649801790714 -0.010219553951174019 -0.05194752477109432 -0.05187779478728771 -0.014984727837145325 -0.0149797685444355 -0.01498377788811922 -0.047755688428878784 -0.047712408006191254 -0.047674424946308136 -0.04752121865749359 -0.0475405715405941 -0.047650497406721115 -0.016242424957454205 -0.016168404370546344 -0.016462650150060654 -0.0165207264944911 -0.016355827450752255 -0.020466548390686512 -0.02019125409424305 -0.020265300758183002 -0.02038669772446156 -0.020521792583167553 -0.025826457887887955 -0.0260991221293807 -0.026025817729532715 -0.025905481539666653 -0.025771688669919968 -0.02565409429371357 -0.025961993262171745 -0.025765072554349896 -0.02600531280040741 -0.02575118374079466 -0.02610521111637354 -0.016577196307480335 -0.016325458884239197 -0.016221878118813034 -0.01650017965584993 -0.01615850906819105 -0.02529161609709263 -0.025558325462043285 -0.025384643115103245 -0.025613094680011272 -0.025369943119585514 -0.02567866165190935 -0.020640406757593155 -0.020329732447862625 -0.02052835375070572 -0.020285995677113533 -0.020542487502098083 -0.020185033790767193 -0.02880600839853287 -0.028677585534751415 -0.028570941649377346 -0.02862387802451849 -0.02881044987589121 -0.02892572619020939 -0.04086211510002613 -0.04062190465629101 -0.04072273522615433 -0.040973544120788574 -0.040755441412329674 -0.04060058854520321 -0.02871793694794178 -0.028714551590383053 -0.028829178772866726 -0.029008482582867146 -0.028968018479645252 -0.028785329312086105 -0.04709520936012268 -0.04721601866185665 -0.04731914587318897 -0.047293925657868385 -0.04720330983400345 -0.047107720747590065 -0.04388467222452164 -0.04363306798040867 -0.04366542585194111 -0.04386728070676327 -0.04377201572060585 -0.03923673741519451 -0.03904080577194691 -0.0389467291533947 -0.03903598338365555 -0.039229294285178185 -0.03933597169816494 -0.038615716621279716 -0.03895571082830429 -0.03883570060133934 -0.03865090198814869 -0.03855729661881924 -0.04831061325967312 -0.04808772541582584 -0.048268554732203484 -0.03835038095712662 -0.038656288757920265 -0.03844488970935345 -0.038745542988181114 -0.03846713900566102 -0.03885222040116787 -0.038669636473059654 -0.03888663649559021 -0.03867780603468418 -0.0391046404838562 -0.03881463222205639 -0.029840429313480854 -0.02955883089452982 -0.02954271901398897 -0.029807123355567455 -0.02996422816067934 -0.029422566294670105 -0.029302374459803104 -0.03161740303039551 -0.031769055873155594 -0.031885936856269836 -0.031834522262215614 -0.031699031591415405 -0.03159879334270954 -0.03823775611817837 -0.038264075294137 -0.038513097912073135 -0.038327330723404884 -0.03850838914513588 -0.03834894113242626 -0.04902170039713383 -0.049113014712929726 -0.049277761951088905 -0.04917861148715019 -0.049145856872200966 -0.04929996468126774 -0.04937462508678436 -0.039494140073657036 -0.03978275507688522 -0.03981710225343704 -0.039593374356627464 -0.03940006345510483 -0.03401339799165726 -0.034132348373532295 -0.034313859418034554 -0.03401764109730721 -0.03427448496222497 -0.03409721702337266 -0.03797831013798714 -0.038277726620435715 -0.03807308152318001 -0.038336146622896194 -0.038088055327534676 -0.038241246715188026 -0.038462525233626366 -0.04854905791580677 -0.04849119298160076 -0.048564231023192406 -0.016704355366528034 -0.0168379545211792 -0.017024333588778976 -0.016992119140923023 -0.016863816417753696 -0.01676243171095848 -0.01664902921766043 -0.021005680784583092 -0.02073696441948414 -0.02091190591454506 -0.020681720227003098 -0.020926800556480885 -0.020615567453205585 -0.04141041077673435 -0.04150741547346115 -0.041725561022758484 -0.04159795865416527 -0.04157739132642746 -0.041735390201210976 -0.02941887266933918 -0.029279181733727455 -0.039083341136574745 -0.039328739047050476 -0.03927217982709408 -0.03935251943767071 -0.03941935859620571 -0.039196502417325974 -0.03939218260347843 -0.039376480504870415 -0.03907649219036102 -0.03898288682103157 -0.035889776423573494 -0.03592217154800892 -0.03619302995502949 -0.0359857901930809 -0.036167532205581665 -0.035992687568068504 -0.017533878795802593 -0.017439816147089005 -0.01725199539214373 -0.017532536759972572 -0.017273630015552044 -0.0174601087346673 -0.05172686278820038 -0.05170072987675667 -0.05158602446317673 -0.051591189578175545 -0.04356569051742554 -0.04371845722198486 -0.01219437038525939 -0.01292765513062477 -0.01297616027295589 -0.01277536991983652 -0.013241407927125689 -0.013318873476237055 -0.013215787708759304 -0.0508093684911728 -0.05088971368968487 -0.05068102478981019 -0.0508324783295393 -0.05067531764507294 -0.013984313234686852 -0.01394412759691477 -0.013642916455864906 -0.013759699650108814 -0.013725502882152796 -0.027866327203810215 -0.028155259788036346 -0.02797634433954954 -0.028309748508036137 -0.028135708533227444 -0.027945229783654213 -0.02803569566458464 -0.01792003307491541 -0.01797679997980595 -0.017699447460472584 -0.017649778164923195 -0.017806826159358025 -0.017887894064188 -0.017617639154195786 -0.017831119708716866 -0.01752113178372383 -0.017653544433414936 -0.027537538670003414 -0.027781638316810135 -0.02760111726820469 -0.02787049487233162 -0.027621502056717873 -0.027773937210440636 -0.027972117066383365 -0.017172444611787796 -0.017272033728659153 -0.01743698213249445 -0.01748665142804384 -0.01724469382315874 -0.017550189048051834 -0.014635477215051651 -0.014779527205973865 -0.05103166028857231 -0.038553761318325996 -0.03877076134085655 -0.038893308490514755 -0.03901735320687294 -0.03883674927055836 -0.038230136036872864 -0.03853604383766651 -0.03839104808866978 -0.03816831111907959 -0.03809855319559574 -0.038599878549575806 -0.03804771043360233 -0.03783174976706505 -0.03774047829210758 -0.03786505199968815 -0.038164468482136726 -0.03825910948216915 -0.04432995244860649 -0.04410092160105705 -0.04164436645805836 -0.04139688052237034 -0.043754830956459045 -0.04399546980857849 -0.04217088967561722 -0.04230680502951145 -0.04239227995276451 -0.04253913089632988 -0.04249615594744682 -0.03746223635971546 -0.03766348026692867 -0.037791911512613297 -0.03768216632306576 -0.037473039701581 -0.03738154098391533 -0.037886811420321465 -0.04213394410908222 -0.042303891852498055 -0.04237996228039265 -0.042526815086603165 -0.042477430775761604 -0.040557656437158585 -0.040719637647271156 -0.04081381857395173 -0.040936049073934555 -0.0409002173691988 -0.04335694201290607 -0.04349099099636078 -0.04357456974685192 -0.04369017854332924 -0.04365558177232742 -0.043238935992121696 -0.04307178780436516 -0.04299642890691757 -0.04285016097128391 -0.04289950430393219 -0.04319467023015022 -0.04305201582610607 -0.04298715479671955 -0.042840879410505295 -0.04288539104163647 -0.04474818892776966 -0.04460788518190384 -0.044520413503050804 -0.04440133087337017 -0.04443993791937828 -0.04474741965532303 -0.044650403782725334 -0.04453062452375889 -0.04437878914177418 -0.044405000284314156 -0.04424246400594711 -0.050512490794062614 -0.05044225603342056 -0.050750982016325 -0.050662728026509285 -0.04207257367670536 -0.041881974786520004 -0.04166182689368725 -0.03137131314724684 -0.031073150224983692 -0.03110705502331257 -0.03135270345956087 -0.03121765423566103 -0.03148819413036108 -0.028624017722904686 -0.028690708801150325 -0.02893843036144972 -0.028789053671061993 -0.028756463900208473 -0.028944537043571476 -0.02987415064126253 -0.03009486477822065 -0.02994599752128124 -0.030034242197871205 -0.030122887343168255 -0.030188673175871372 -0.0456498209387064 -0.04569566994905472 -0.04579491168260574 -0.04255461320281029 -0.0424930602312088 -0.04272070527076721 -0.04225330986082554 -0.042134642601013184 -0.042414771392941475 -0.04210328310728073 -0.05160324648022652 -0.05169317312538624 -0.051551951095461845 -0.051701728254556656 -0.05161280557513237 -0.051526596769690514 -0.01763057895004749 -0.017562756314873695 -0.01730945985764265 -0.017461898736655716 -0.017495643347501755 -0.01730383280664682 -0.012065519113093615 -0.012049491051584486 -0.012445697095245126 -0.012640142347663641 -0.012447058223187925 -0.01227330369874835 -0.012070181779563425 -0.012234218418598175 -0.012466387823224064 -0.012491483241319655 -0.01243170723319054 -0.012526070699095726 -0.012483390048146244 -0.01268418412655592 -0.012101850938051936 -0.012163975741714236 -0.01228894479572773 -0.012812272645533085 -0.012813633773475885 -0.013170067220926285 -0.01316503109410405 -0.01302972622215748 -0.02819223236292601 -0.02814952097833157 -0.028041421435773373 -0.027868028730154037 -0.027596375904977325 -0.027869363315403465 -0.05183492414653301 -0.051801979541778564 -0.051888635382056236 -0.051890116184949875 -0.05184976011514664 -0.043570710346102715 -0.051972655579447746 -0.051950396969914436 -0.0519774854183197 -0.025852822698652744 -0.02612280752509832 -0.051296861842274666 -0.01226393226534128 -0.012219936121255156 -0.012582031078636645 -0.012630536220967764 -0.012381237000226971 -0.012292289175093176 -0.01235367776826024 -0.012604009825736284 -0.01265889313071966 -0.012465554289519785 -0.012849655002355576 -0.012806974351406094 -0.013050445355474945 -0.013163407798856495 -0.01297910464927554 -0.02043989486992359 -0.02016723994165659 -0.0359679963439703 -0.0357682928442955 -0.035988228395581245 -0.03612031973898411 -0.03577069938182831 -0.04484199546277523 -0.010881491005420685 -0.010735415387898684 -0.02040250226855278 -0.02025854028761387 -0.051535382866859436 -0.02588990144431591 -0.026032282039523125 -0.036848776042461395 -0.037084244191646576 -0.03693694621324539 -0.03716493956744671 -0.03687085583806038 -0.03703972138464451 -0.03729337081313133 -0.032694028690457344 -0.03299019858241081 -0.032799696549773216 -0.039904071018099785 -0.039664532989263535 -0.03355886600911617 -0.03324156627058983 -0.033135898411273956 -0.032767362892627716 -0.03262980654835701 -0.032503023743629456 -0.03252136893570423 -0.032647259533405304 -0.032766470685601234 -0.03288360312581062 -0.04520643316209316 -0.04497683234512805 -0.04515574872493744 -0.044969186186790466 -0.04507867619395256 -0.04459632374346256 -0.044633910059928894 -0.04483247734606266 -0.04482483118772507 -0.044701192528009415 -0.044901903718709946 -0.032744014635682106 -0.032479675486683846 -0.03238718956708908 -0.0326489582657814 -0.03244226425886154 -0.032879339531064034 -0.032934414222836494 -0.032014766708016396 -0.032268961891531944 -0.0321112722158432 -0.03228730708360672 -0.03206660598516464 -0.03218145668506622 -0.03240651823580265 -0.03425893746316433 -0.03420169651508331 -0.0339748989790678 -0.03416075184941292 -0.03394282050430775 -0.034071432426571846 -0.03712807968258858 -0.03743654116988182 -0.037216056138277054 -0.03756111487746239 -0.03726048953831196 -0.037652501836419106 -0.03785456903278828 -0.038176022469997406 -0.03797943703830242 -0.03825598023831844 -0.03796348534524441 -0.038348935544490814 -0.03847380355000496 -0.03392522782087326 -0.03383747488260269 -0.03364924341440201 -0.03357807733118534 -0.033668408170342445 -0.03382732719182968 -0.03345089592039585 -0.03336314298212528 -0.009667773265391588 -0.009928951505571604 -0.009671865496784449 -0.009859620593488216 -0.009495514445006847 -0.010086426511406898 -0.010171253699809315 -0.033525288105010986 -0.03377453796565533 -0.03374245949089527 -0.03351309150457382 -0.033624133095145226 -0.033379022032022476 -0.03383177891373634 -0.03747292421758175 -0.037788042798638344 -0.03756069764494895 -0.037919625639915466 -0.037612393498420715 -0.03801077976822853 -0.03571830503642559 -0.035932909697294235 -0.03591633588075638 -0.03616886213421822 -0.03612593933939934 -0.034586718305945396 -0.03482206165790558 -0.03452518209815025 -0.034444816410541534 -0.051859939470887184 -0.05186431109905243 -0.05179968290030956 -0.051938051357865334 -0.05190635100007057 -0.0159608181566 -0.015738806687295437 -0.016066950745880604 -0.0159215135499835 -0.015581731218844656 -0.015678748954087496 -0.03438728488981724 -0.03410324640572072 -0.03420114703476429 -0.034510403871536255 -0.0344227161258459 -0.034012915566563606 -0.03384564630687237 -0.03418351709842682 -0.03403714299201965 -0.0337611585855484 -0.03367404639720917 -0.033474378287792206 -0.03537815064191818 -0.03562747873365879 -0.035506850108504295 -0.03525705635547638 -0.035566261038184166 -0.03573169559240341 -0.030796228908002377 -0.03050466999411583 -0.030830133706331253 -0.030718553811311725 -0.030576681718230247 -0.030965182930231094 -0.028035398572683334 -0.027910497039556503 -0.028028704226017 -0.033433159813284874 -0.043136755004525185 -0.01822991669178009 -0.0183567963540554 -0.01823682058602571 -0.01678177248686552 -0.01686685997992754 -0.017101951874792576 -0.016973510384559635 -0.01690211147069931 -0.017096324823796746 -0.017202809453010556 -0.02947417926043272 -0.029340380802750587 -0.02913573756814003 -0.029241418465971947 -0.02903739269822836 -0.029141844250261784 -0.029331977479159832 -0.009975005872547626 -0.05142115615308285 -0.05075862258672714 -0.05075427517294884 -0.05086844600737095 -0.05089543573558331 -0.05095141753554344 -0.041138965636491776 -0.0409027636051178 -0.050972117111086845 -0.05110729858279228 -0.011065084487199783 -0.010969942435622215 -0.010897175408899784 -0.010678738355636595 -0.01070989016443491 -0.010745130013674494 -0.05139462649822235 -0.05126307159662247 -0.05132831260561943 -0.051206594333052635 -0.051158517599105835 -0.04992723651230335 -0.049823664128780365 -0.05012931860983372 -0.04999969340860844 -0.04997505061328411 -0.049856122583150864 -0.04965302720665932 -0.04975319840013981 -0.04989590309560298 -0.04989676922559738 -0.03134339675307274 -0.031199727207422256 -0.035125941038131714 -0.03504035621881485 -0.03481755778193474 -0.03469443880021572 -0.034988658502697945 -0.03459598869085312 -0.03102372493594885 -0.030921367928385735 -0.030706451274454594 -0.036854228004813194 -0.03664303012192249 -0.03658966347575188 -0.036751169711351395 -0.036986637860536575 -0.03707471303641796 -0.036992134526371956 -0.0373005960136652 -0.03716112673282623 -0.03695334307849407 -0.03686889074742794 -0.03738847188651562 -0.031485415995121 -0.03158203139901161 -0.031274834647774696 -0.031545838341116905 -0.03116900846362114 -0.031059917993843555 -0.030917898751795295 -0.03952207416296005 -0.039305517449975014 -0.03942267969250679 -0.039079343900084496 -0.03908751346170902 -0.039210060611367226 -0.03478753939270973 -0.03471030853688717 -0.03448343835771084 -0.03433706425130367 -0.03464632108807564 -0.03426074795424938 -0.03627846948802471 -0.036451615393161774 -0.03657249175012112 -0.03669770993292332 -0.03655041195452213 -0.04536330699920654 -0.037536146119236946 -0.03733152709901333 -0.03720968961715698 -0.03732994385063648 -0.03764506243169308 -0.03773273155093193 -0.014717914629727599 -0.01447310298681259 -0.045008584856987 -0.051927683874964714 -0.05194590054452419 -0.05196311138570309 -0.049425508826971054 -0.01188307302072644 -0.011889072135090824 -0.011650338303297755 -0.01142180152237415 -0.01163642248138785 -0.011920833494514225 -0.01168350130319595 -0.01145266182720661 -0.011443901341408491 -0.01166509790346026 -0.010410090908408165 -0.01025261590257287 -0.010087426751852036 -0.019203713163733482 -0.019338048994541165 -0.019552757032215595 -0.019580823369324207 -0.01944016572088003 -0.01970349438488483 -0.019028888083994385 -0.019308315590023994 -0.026332060806453228 -0.026091154664754868 -0.02597947884351015 -0.026158341206610203 -0.026406584307551384 -0.026357061229646206 -0.0195884071290493 -0.01972392573952675 -0.01997920125722885 -0.01999302487820387 -0.01974016148597002 -0.01992820017039776 -0.02031110879033804 -0.020198581740260124 -0.02013047877699137 -0.01995094120502472 -0.01987761538475752 -0.026693282648921013 -0.026560815051198006 -0.026308536529541016 -0.026294547133147717 -0.026542790234088898 -0.02724777814000845 -0.026972094550728798 -0.027075727470219135 -0.026942647993564606 -0.026730616576969624 -0.026702923700213432 -0.026841767132282257 -0.02658160589635372 -0.03509802557528019 -0.0353828389197588 -0.03529922291636467 -0.03526519052684308 -0.034956807270646095 -0.03487115539610386 -0.051746221259236336 -0.05163969658315182 -0.05174184963107109 -0.05160617642104626 -0.05167340114712715 -0.05157250352203846 -0.05163574405014515 -0.0355991218239069 -0.03529494069516659 -0.03543222323060036 -0.03573969565331936 -0.03565621189773083 -0.035209424793720245 -0.01065532537177205 -0.010400582570582625 -0.010811867192387581 -0.010672973468899725 -0.010440199635922909 -0.010523419827222824 -0.012115029618144035 -0.01182881789281964 -0.01183673460036516 -0.01207546843215823 -0.04991688393056393 -0.049763770774006844 -0.0498259961605072 -0.05047234892845154 -0.05049176886677742 -0.05034012906253338 -0.05035673826932907 -0.05026300251483917 -0.031049846671521664 -0.04019040614366531 -0.03997264988720417 -0.03998785093426704 -0.04018350876867771 -0.04013165272772312 -0.04036307893693447 -0.04013775289058685 -0.04007626324892044 -0.04027192108333111 -0.04043627344071865 -0.03676801174879074 -0.03684892319142818 -0.03706243447959423 -0.03715766407549381 -0.03686358034610748 -0.03679776191711426 -0.03650288470089436 -0.0365839209407568 -0.036635613068938255 -0.036930035799741745 -0.03502356447279453 -0.03486661054193974 -0.034561438485980034 -0.034679196774959564 -0.034890906885266304 -0.034777168184518814 -0.03463511355221272 -0.04788294248282909 -0.04791848175227642 -0.04937049560248852 -0.04929685592651367 -0.049200600013136864 -0.049541175365448 -0.04963852278888226 -0.04971294663846493 -0.03485769405961037 -0.03497131168842316 -0.03513455390930176 -0.035249143838882446 -0.03500265255570412 -0.03268740512430668 -0.03254285082221031 -0.03250778838992119 -0.03230368718504906 -0.03236642852425575 -0.016162347048521042 -0.015854383818805218 -0.016130761243402954 -0.016025147400796413 -0.01575865037739277 -0.015501822344958786 -0.015346366446465254 -0.0152168576605618 -0.015289612114429474 -0.015514854341745375 -0.015597555786371231 -0.015629141591489315 -0.016125114634633064 -0.016460096463561058 -0.01631788071244955 -0.016009917482733727 -0.01545259170234203 -0.015215108636766669 -0.014928840100765225 -0.014788218773901459 -0.015852591022849083 -0.015558804385364056 -0.01542945019900799 -0.015737393870949745 -0.015924513339996338 -0.04772963561117649 -0.04765601269900799 -0.0474951658397913 -0.04746994562447071 -0.047575581818819046 -0.04737435653805733 -0.019248053431510925 -0.01897821016609669 -0.019094860181212425 -0.018962237983942035 -0.019166771322488785 -0.03137173969298601 -0.03103773482143879 -0.031236340291798115 -0.03092088643461466 -0.031220844946801662 -0.030968597158789635 -0.02879795525223017 -0.028562888503074646 -0.028455126099288464 -0.028924684040248394 -0.028243388049304485 -0.02854785416275263 -0.028327029198408127 -0.02865485101938248 -0.02836474496871233 -0.04650428891181946 -0.03703583218157291 -0.03674359619617462 -0.03661828860640526 -0.03691557794809341 -0.03670778125524521 -0.03712019696831703 -0.040200475603342056 -0.04013838991522789 -0.04001075588166714 -0.03998725675046444 -0.03980601392686367 -0.0332319475710392 -0.032944848760962486 -0.03314950875937939 -0.03281595557928085 -0.033109670504927635 -0.03695758059620857 -0.036671729758381844 -0.036772891879081726 -0.0369950532913208 -0.037081778049468994 -0.014674691483378416 -0.014505685307085514 -0.015003701206296686 -0.0146577637642622 -0.01493094675242901 -0.01508640265092254 -0.04053494706749916 -0.04033420793712139 -0.025430969893932343 -0.02515508607029915 -0.025261349976062775 -0.02552805934101343 -0.02562789060175419 -0.028505321592092514 -0.02824942208826542 -0.0283495020121336 -0.028577634133398536 -0.030749598518013954 -0.031049557030200958 -0.030892337672412395 -0.030673020519316196 -0.03061124123632908 -0.01844264194369316 -0.01873390655964613 -0.01883749198168516 -0.018564336001873016 -0.018759031780064106 -0.04878164269030094 -0.04892745055258274 -0.04898115247488022 -0.04889293387532234 -0.04871980100870132 -0.0486622117459774 -0.03858104906976223 -0.038873421028256416 -0.03880200907588005 -0.038431717082858086 -0.038517070934176445 -0.03872290998697281 -0.03882441855967045 -0.03874967247247696 -0.03856281004846096 -0.050052231177687645 -0.04995709843933582 -0.04990542680025101 -0.05021079257130623 -0.05023323930799961 -0.05013366602361202 -0.03924340941011906 -0.03898954764008522 -0.039062125608325005 -0.03909105621278286 -0.039322689175605774 -0.03924291394650936 -0.03890419378876686 -0.031035957857966423 -0.030718684196472168 -0.03065099660307169 -0.030867804773151875 -0.02808930166065693 -0.028346574865281582 -0.028399511240422726 -0.028166907839477062 -0.028474997729063034 -0.0145383570343256 -0.04674461670219898 -0.046556927263736725 -0.04650256596505642 -0.0465996079146862 -0.04678669385612011 -0.04687734134495258 -0.02901907730847597 -0.0287151001393795 -0.02893547248095274 -0.02889963611960411 -0.02856251783668995 -0.028258183039724827 -0.028054676018655304 -0.02798652835190296 -0.028106299228966236 -0.02841076534241438 -0.02849437016993761 -0.03797155246138573 -0.037678807973861694 -0.037810590118169785 -0.038068654015660286 -0.03798812814056873 -0.03830613009631634 -0.03859732300043106 -0.03844800963997841 -0.03814555145800114 -0.03820717893540859 -0.038198817521333694 -0.03825579769909382 -0.03843108378350735 -0.038524288684129715 -0.03829751908779144 -0.038941770792007446 -0.03868311271071434 -0.03888895362615585 -0.038678403943777084 -0.03880380466580391 -0.038593538105487823 -0.0382311400026083 -0.03850648179650307 -0.03861596994102001 -0.03832824155688286 -0.03815070353448391 -0.039685605093836784 -0.0399156529456377 -0.03985416330397129 -0.0396234393119812 -0.039705270901322365 -0.03999443165957928 -0.017766092903912067 -0.018024848774075505 -0.017948255874216557 -0.01783563941717148 -0.017697869800031185 -0.038755834102630615 -0.0389858428388834 -0.038924237713217735 -0.03866262920200825 -0.03860564902424812 -0.034638408571481705 -0.03440185450017452 -0.0342668741941452 -0.03947473503649235 -0.03976953774690628 -0.03978473879396915 -0.039554014801979065 -0.03983659483492374 -0.039402157068252563 -0.036866432055830956 -0.037175318226218224 -0.03315352648496628 -0.03342277370393276 -0.03334946185350418 -0.03306236304342747 -0.024895739741623405 -0.025142722763121128 -0.02481094840914011 -0.025064395740628246 -0.025238078087568283 -0.038702718913555145 -0.03899509087204933 -0.039105894044041634 -0.0388520322740078 -0.03864109143614769 -0.030331284739077095 -0.03061751462519169 -0.03072473406791687 -0.030443637631833553 -0.03974052146077156 -0.03986603207886219 -0.048958929255604744 -0.01368394074961543 -0.014001701958477494 -0.013915135990828276 -0.01357921212911606 -0.013470627833157781 -0.0362748596817255 -0.03656888194382191 -0.036473313346505165 -0.03617790527641773 -0.03625909239053726 -0.03668682463467121 -0.04408467561006546 -0.04433103837072849 -0.04428822360932827 -0.04419481009244919 -0.04406728409230709 -0.04396069422364235 -0.02871514856815338 -0.029005694203078747 -0.02916515152901411 -0.028681837022304535 -0.0287874611094594 -0.03665684349834919 -0.03636196628212929 -0.03655261918902397 -0.036336468532681465 -0.03645419888198376 -0.03626595251262188 -0.03010495286434889 -0.030349492095410824 -0.030220562592148784 -0.0299759516492486 -0.030277480371296406 -0.030461071990430355 -0.030096753500401974 -0.029769569635391235 -0.029894459061324596 -0.03007727675139904 -0.030209106393158436 -0.03026081994175911 -0.0325450524687767 -0.03265679255127907 -0.03282937780022621 -0.032578084617853165 -0.03292054124176502 -0.033029330894351006 -0.03132159076631069 -0.03162878751754761 -0.031487442553043365 -0.031153437681496136 -0.031118907034397125 -0.04712122492492199 -0.04734516143798828 -0.04736451432108879 -0.047157106921076775 -0.047271253541111946 -0.04742642492055893 -0.017827410250902176 -0.018128786236047745 -0.01787937432527542 -0.017947151325643063 -0.0182070666924119 -0.038173574954271317 -0.03788308799266815 -0.03793539106845856 -0.03807240165770054 -0.03830466791987419 -0.03837941400706768 -0.03786178678274155 -0.038183240219950676 -0.03828761354088783 -0.03798515535891056 -0.0383590254932642 -0.03847667574882507 -0.013832578901201485 -0.01370597584173083 -0.013430544175207615 -0.01349665503948927 -0.013709967955946919 -0.03787938319146633 -0.03813744708895683 -0.03825902007520199 -0.03801092877984047 -0.03745132312178612 -0.03778099827468395 -0.037649452686309814 -0.037356093525886536 -0.03743670508265495 -0.037798771634697914 -0.03727518208324909 -0.03751753456890583 -0.03722417540848255 -0.037091901525855064 -0.03738575242459774 -0.03759806044399738 -0.03701086528599262 -0.04682993330061436 -0.04702727496623993 -0.047058230265975 -0.04696737974882126 -0.04683689959347248 -0.04673040844500065 -0.018106368370354176 -0.01839841902256012 -0.018193825148046017 -0.018505249172449112 -0.018245856277644634 -0.018440143205225468 -0.031584806740283966 -0.031287435442209244 -0.03156592696905136 -0.03144833631813526 -0.03113021608442068 -0.031068436801433563 -0.028092322871088985 -0.02782066818326712 -0.027970749884843826 -0.027715448290109634 -0.027827883139252663 -0.04589765891432762 -0.04607479088008404 -0.046137744560837746 -0.04604637995362282 -0.04589150473475456 -0.045805737376213074 -0.027825642377138134 -0.027539466507732865 -0.02773638721555471 -0.027436702512204644 -0.027705871500074863 -0.02751385234296322 -0.02790937852114439 -0.03590448573231697 -0.036207739263772964 -0.036340467631816864 -0.03604505956172943 -0.03582107089459896 -0.036421580240130424 -0.04936298727989197 -0.04948452673852444 -0.049726495519280434 -0.04964923672378063 -0.049464957788586617 -0.017986960709095 -0.018279011361300945 -0.01815731730312109 -0.01793259847909212 -0.01784742809832096 -0.018357471562922 -0.01770136691629887 -0.017455135472118855 -0.03478550538420677 -0.03467707708477974 -0.03449424356222153 -0.034724071621894836 -0.034454869106411934 -0.03457626886665822 -0.03437529318034649 -0.0396469421684742 -0.03942408598959446 -0.03956768289208412 -0.039851684123277664 -0.0398379173129797 -0.027771216817200184 -0.028060149401426315 -0.02793879248201847 -0.0276526166126132 -0.028159617446362976 -0.03646729327738285 -0.03676458261907101 -0.03660513088107109 -0.03639834187924862 -0.03631730563938618 -0.036785395815968513 -0.03702588379383087 -0.03945206291973591 -0.03921986930072308 -0.03915826417505741 -0.03938989713788033 -0.03953878954052925 -0.0390712209045887 -0.045632774010300636 -0.045695727691054344 -0.017568347044289116 -0.01787833496928215 -0.018017812632024288 -0.01770792342722416 -0.018076712265610695 -0.04686493054032326 -0.04662795923650265 -0.04676635377109051 -0.04654822684824467 -0.03766309469938278 -0.037604330107569695 -0.037362704053521156 -0.03723408281803131 -0.03774352930486202 -0.03753972612321377 -0.0372132696211338 -0.04865453578531742 -0.0488656610250473 -0.048687221482396126 -0.048734504729509354 -0.04899867624044418 -0.04892070218920708 -0.03924034722149372 -0.03629916161298752 -0.03657842054963112 -0.03638184815645218 -0.036701664328575134 -0.03643709979951382 -0.03678620420396328 -0.03618457354605198 -0.0487483199685812 -0.04880771413445473 -0.04694993980228901 -0.04717823676764965 -0.047273728996515274 -0.04708266444504261 -0.046895578503608704 -0.0356594193726778 -0.03533022478222847 -0.03521334379911423 -0.035498157143592834 -0.04692832753062248 -0.017852189019322395 -0.017591765150427815 -0.01754217967391014 -0.017690300941467285 -0.017991676926612854 -0.018056782893836498 -0.029994050040841103 -0.030308697372674942 -0.03010659199208021 -0.030447054654359818 -0.03052801452577114 -0.04636157676577568 -0.04614834114909172 -0.04620741866528988 -0.04636603780090809 -0.04644130915403366 -0.04646934010088444 -0.04685760289430618 -0.04697028174996376 -0.04716425575315952 -0.037850966677069664 -0.03755057603120804 -0.038011545315384865 -0.0377210583537817 -0.03809179738163948 -0.035574767738580704 -0.035882240161299706 -0.035979194566607475 -0.03587081469595432 -0.03569241613149643 -0.03549121879041195 -0.03609646111726761 -0.028922573663294315 -0.02925625443458557 -0.029119553975760937 -0.028815576806664467 -0.028731935657560825 -0.04570639319717884 -0.04595675878226757 -0.045775193721055984 -0.04601583629846573 -0.0460911076515913 -0.0214041518047452 -0.021155615337193016 -0.021489428356289864 -0.02123449556529522 -0.0210595540702343 -0.042259346693754196 -0.042123083025217056 -0.04191272892057896 -0.0420264583081007 -0.04182218573987484 -0.04192255809903145 -0.042094502598047256 -0.04859194718301296 -0.048382895067334175 -0.048518888652324677 -0.04829107224941254 -0.04847251623868942 -0.04864564910531044 -0.0467190220952034 -0.04667017422616482 -0.04691765084862709 -0.04674460552632809 -0.046930162236094475 -0.04680596478283405 -0.04702077805995941 -0.04982389695942402 -0.049899714067578316 -0.04968123510479927 -0.04958192817866802 -0.04951629228889942 -0.049649469554424286 -0.046009836718440056 -0.045890696346759796 -0.027491478249430656 -0.027229322120547295 -0.027425255626440048 -0.027106041088700294 -0.02737287804484367 -0.027183374390006065 -0.02757528331130743 -0.03636901080608368 -0.03614793159067631 -0.036106450483202934 -0.03621505945920944 -0.03649431839585304 -0.036576807498931885 -0.04318750090897083 -0.04327979497611523 -0.043450864031910896 -0.043483221903443336 -0.04336673393845558 -0.043578486889600754 -0.03787394426763058 -0.038105934858322144 -0.038182519376277924 -0.038007233291864395 -0.037784406915307045 -0.03780070506036282 -0.032107457518577576 -0.03245574049651623 -0.0325888991355896 -0.0322771891951561 -0.03251447156071663 -0.03615429252386094 -0.03612794354557991 -0.0363638959825039 -0.03657509386539459 -0.03652540221810341 -0.03253728151321411 -0.032321106642484665 -0.03225376456975937 -0.03238184936344624 -0.032666174694895744 -0.03274861350655556 -0.04870154522359371 -0.048492493107914925 -0.0485756229609251 -0.048786748200654984 -0.03442559950053692 -0.03412512317299843 -0.03402772359549999 -0.03432818502187729 -0.04861313849687576 -0.03237372450530529 -0.03226356580853462 -0.03209020756185055 -0.032038792967796326 -0.032159533351659775 -0.03193855471909046 -0.03656069003045559 -0.03627286478877068 -0.036234861239790916 -0.03645952790975571 -0.03664741478860378 -0.04692237637937069 -0.04667489975690842 -0.04675201512873173 -0.046958258375525475 -0.04705151915550232 -0.03600987419486046 -0.03572309575974941 -0.03563721664249897 -0.03588435798883438 -0.0361307505518198 -0.03615295328199863 -0.03719052113592625 -0.03748520091176033 -0.03756135515868664 -0.03731471858918667 -0.037092557176947594 -0.03362460248172283 -0.03391964174807072 -0.033731646835803986 -0.03409026749432087 -0.033972252160310745 -0.03369791433215141 -0.03353745676577091 -0.03751148283481597 -0.03768805041909218 -0.03792623430490494 -0.037877364084124565 -0.037654537707567215 -0.03180384077131748 -0.03212004899978638 -0.03188655339181423 -0.03227043151855469 -0.031945185735821724 -0.032178280875086784 -0.03172093816101551 -0.033729029819369316 -0.0334091130644083 -0.03353139013051987 -0.03382642939686775 -0.03392486646771431 -0.033326730132102966 -0.01142950402572751 -0.01152499672025442 -0.011308519169688225 -0.01140995789319277 -0.016757073812186718 -0.01686572935432196 -0.01707705203443766 -0.017098686657845974 -0.016968244686722755 -0.01717111468315125 -0.03214298002421856 -0.03184664063155651 -0.031746361404657364 -0.03201489523053169 -0.03223107010126114 -0.04998517967760563 -0.05004061572253704 -0.049766700714826584 -0.04986404813826084 -0.05001085251569748 -0.049832336604595184 -0.02086540311574936 -0.021143182180821896 -0.02103620022535324 -0.020767483860254288 -0.020666781812906265 -0.01726360525935888 -0.01757371053099632 -0.01731260400265455 -0.017403233796358105 -0.01771324314177036 -0.01779842935502529 -0.04638885706663132 -0.04613707959651948 -0.04605172947049141 -0.046291815117001534 -0.04647950455546379 -0.03623691573739052 -0.03597435541450977 -0.03586249426007271 -0.036086928099393845 -0.036293717101216316 -0.03180096670985222 -0.031503595411777496 -0.031654490157961845 -0.03197069838643074 -0.03204512596130371 -0.03145588468760252 -0.02948729135096073 -0.029380190186202526 -0.029188143089413643 -0.029147678986191746 -0.02927130740135908 -0.029076901264488697 -0.03177965618669987 -0.03164463862776756 -0.013350531458854675 -0.013074612710624935 -0.013245802838355306 -0.013008631765842441 -0.012902809772640465 -0.04983162693679333 -0.04973649419844151 -0.04946846701204777 -0.04958788491785526 -0.04972783662378788 -0.04956472292542458 -0.017550158314406872 -0.017268274910748005 -0.017236060462892056 -0.01748193521052599 -0.017339378595352173 -0.01713467575609684 -0.017594551667571064 -0.04662833549082279 -0.04638628475368023 -0.0462949201464653 -0.046528810635209084 -0.04620915278792381 -0.04665929079055787 -0.04883968085050582 -0.049039190635085106 -0.04911283031105995 -0.0489248838275671 -0.04881328530609608 -0.04910025745630264 -0.0493334885686636 -0.049432795494794846 -0.04904266819357872 -0.04918847605586052 -0.04935837164521217 -0.017294542863965034 -0.01703335624188185 -0.016984342597424984 -0.017124013975262642 -0.01743411924690008 -0.01751933339983225 -0.027926734648644924 -0.027677741833031178 -0.028043412603437904 -0.027592884376645088 -0.0277632549405098 -0.027936647646129135 -0.04780567064881325 -0.0476009976118803 -0.047536250203847885 -0.047705983743071556 -0.04787603765726089 -0.047880491241812706 -0.050239073112607 -0.05033174715936183 -0.050084805116057396 -0.05017281882464886 -0.05033385753631592 -0.05010858178138732 -0.05113575793802738 -0.05104418843984604 -0.05094347149133682 -0.050992369651794434 -0.051100773736834526 -0.02765356656163931 -0.02739141043275595 -0.02748836949467659 -0.02773246914148331 -0.027832482010126114 -0.01678716391324997 -0.01702750474214554 -0.016955255530774593 -0.016670869663357735 -0.01712020393460989 -0.042938483878970146 -0.02714002039283514 -0.02738930843770504 -0.027063128538429737 -0.02730534505099058 -0.027485866099596024 -0.03490760922431946 -0.03471088781952858 -0.01712564378976822 -0.016983473673462868 -0.017293673940002918 -0.017390181310474873 -0.01747124921530485 -0.03480702824890614 -0.0346629060804844 -0.034967007115483284 -0.03508388809859753 -0.03516594134271145 -0.019584462977945805 -0.019336992874741554 -0.019643289968371395 -0.019418274983763695 -0.01930162496864796 -0.019083188846707344 -0.019314967095851898 -0.01924944669008255 -0.018979603424668316 -0.018888493068516254 -0.01891727652400732 -0.018644120544195175 -0.01898044440895319 -0.018750950694084167 -0.018556663766503334 -0.033017879351973534 -0.03271024487912655 -0.033124761655926704 -0.03284340351819992 -0.03260612115263939 -0.034890295937657356 -0.03459903411567211 -0.03500107116997242 -0.03469644859433174 -0.03449440933763981 -0.01838416326791048 -0.018645700067281723 -0.018565275706350803 -0.018305882811546326 -0.01825391873717308 -0.03448723070323467 -0.034792402759194374 -0.034647444263100624 -0.03437069058418274 -0.034810686483979225 -0.032584214583039284 -0.03288038447499275 -0.032745542004704475 -0.03243383206427097 -0.03235111944377422 -0.02738025691360235 -0.02764942590147257 -0.027317939326167107 -0.027544206008315086 -0.02768707275390625 -0.034153496846556664 -0.03405900299549103 -0.034334322437644005 -0.034407997503876686 -0.034521736204624176 -0.027864135801792145 -0.027607182040810585 -0.027686440385878086 -0.027941741980612278 -0.028025465086102486 -0.027194232679903504 -0.026965439319610596 -0.02703015971928835 -0.027296996675431725 -0.02738625183701515 -0.03245523199439049 -0.032129986211657524 -0.032293716445565224 -0.032555485144257545 -0.032645734027028084 -0.0327942818403244 -0.026732174679636955 -0.027019650675356388 -0.026673994958400726 -0.026896369643509388 -0.027085873298346996 -0.031968846917152405 -0.032223042100667953 -0.03187021054327488 -0.03213055618107319 -0.03233725018799305 -0.03181428276002407 -0.03157197684049606 -0.031632693484425545 -0.03172732703387737 -0.03186612203717232 -0.031971972435712814 -0.0197311844676733 -0.019581258296966553 -0.019303901121020317 -0.019379100762307644 -0.01961695309728384 -0.019476402550935745 -0.011283667292445895 -0.01149892760440707 -0.01126808812841773 -0.011055589187890291 -0.0114892846904695 -0.0112506584264338 -0.01105579128488898 -0.011234557721763846 -0.01146309450268745 -0.011457095388323065 -0.009894206188619137 -0.010127201210707426 -0.009673711843788624 -0.01000702707096934 -0.009707663208246231 -0.009825727436691519 -0.009492412209510803 -0.010081490501761436 -0.009857733268290758 -0.00998272048309445 -0.009654362685978413 -0.009683356620371342 -0.009497369639575481 -0.026554640382528305 -0.026702591218054295 -0.02697670552879572 -0.02690279483795166 -0.026667676866054535 -0.026806643232703205 -0.05192383751273155 -0.051957543939352036 -0.01230912795290351 -0.012115309480577706 -0.01188257476314902 -0.012337235733866692 -0.012138310354202986 -0.01189133524894714 -0.04371217265725136 -0.0437663197517395 -0.04390622675418854 -0.044111382216215134 -0.04389994218945503 -0.04408517107367516 -0.040110718458890915 -0.01147843757644296 -0.04602382518351078 -0.04585505463182926 -0.045981161296367645 -0.04576113447546959 -0.045706531032919884 -0.019551089964807034 -0.019832526333630085 -0.020056159235537052 -0.026732370257377625 -0.026454131118953225 -0.026232914999127385 -0.04737166315317154 -0.0475984625518322 -0.04808853566646575 -0.029028886929154396 -0.01720926072448492 -0.016940833069384098 -0.016711145639419556 -0.03327603079378605 -0.03302466310560703 -0.009522988926619291 -0.009759897831827402 -0.009834249038249254 -0.009577750694006681 -0.051881808787584305 -0.05193665996193886 -0.05189512483775616 -0.051938621327281 -0.03059518709778786 -0.030579264275729656 -0.03643917664885521 -0.009249722119420767 -0.008999999612569809 -0.013841292355209586 -0.0135924513451755 -0.047102395445108414 -0.04689835198223591 -0.04906854033470154 -0.04888342320919037 -0.02865695953369141 -0.028413734398782253 -0.03157620131969452 -0.03133482113480568 -0.04410370625555515 -0.04388474300503731 -0.033964620903134346 -0.03372543677687645 -0.03822442889213562 -0.037990719079971313 -0.017841565422713757 -0.017593774013221264 -0.01536280894652009 -0.0151138985529542 -0.04147236794233322 -0.041245363652706146 -0.03587058372795582 -0.03563355281949043 -0.01783932000398636 -0.017591442912817005 -0.02866290416568518 -0.02841946575790644 -0.02577985636889935 -0.025534984655678272 -0.045396022498607635 -0.04518258944153786 -0.044589726254343987 -0.044372616335749626 -0.020760735496878624 -0.020513487979769707 -0.03442903608083725 -0.03419053927063942 -0.03350415080785751 -0.033264536410570145 -0.03206704556941987 -0.031826214864850044 -0.01685464940965176 -0.01660619676113129 -0.02960140537470579 -0.0293585117906332 -0.04325900413095951 -0.04303705133497715 -0.04787345230579376 -0.047675637528300285 -0.02962905913591385 -0.029386109672486786 -0.03914415277540684 -0.03891219571232796 -0.03251815028488636 -0.03227762505412102 -0.034920211881399155 -0.03468224219977856 -0.049752090126276016 -0.04957803897559643 -0.04235139675438404 -0.04212682694196701 -0.03680417686700821 -0.03656848147511482 -0.04867871478199959 -0.048488790169358253 -0.016853719018399715 -0.01660552527755499 -0.019343887455761433 -0.019096585921943188 -0.02718202769756317 -0.02693777810782194 -0.00929922703653574 -0.00929922703653574 -0.008999999612569809 -0.051968421787023544 -0.051968421787023544 -0.05200000107288361 -0.027149241417646408 -0.026904834434390068 -0.01937592588365078 -0.019128357991576195 -0.03725854679942131 -0.03702344372868538 -0.009304673410952091 -0.009304673410952091 -0.008999999612569809 -0.05196717195212841 -0.05196717195212841 -0.05200000107288361 -0.03820306062698364 -0.037969307973980904 -0.031113837845623493 -0.03087220061570406 -0.03914111666381359 -0.03890901803970337 -0.04191100783646107 -0.041685059666633606 -0.023259039036929607 -0.023013073951005936 -0.021287309005856514 -0.021040416322648525 -0.02426847442984581 -0.024022482335567474 -0.02227430511265993 -0.022027621045708656 -0.04368476755917072 -0.043464384973049164 -0.04786958731710911 -0.04767196625471115 -0.04006466828286648 -0.03983454219996929 -0.040980516001582146 -0.04075239412486553 -0.0232917033135891 -0.023045572452247143 -0.022281304001808167 -0.022034764289855957 -0.025257166475057602 -0.025011852383613586 -0.04625282250344753 -0.04604377970099449 -0.04009799286723137 -0.03986784629523754 -0.04499577730894089 -0.04478046670556068 -0.024275357834994793 -0.024029484950006005 -0.04626009613275528 -0.04605099558830261 -0.05197175778448582 -0.05197175778448582 -0.05200000107288361 -0.04978095926344395 -0.049606893211603165 -0.030594197101891044 -0.030352088622748855 -0.0358735267072916 